train_X,train_y
"[321, 324, 325, 324, 324, 324, 325, 328, 328, 328, 329, 329, 331, 333, 333, 333, 333, 333, 333, 333, 333, 333, 332, 332, 334, 336, 336, 338, 339, 338, 334, 330, 326, 326, 326, 324, 321, 321, 319, 320, 317, 316, 315, 315, 317, 317, 317, 317, 314, 313, 313, 313, 313, 313, 315, 314, 314, 314, 315, 314, 314, 311, 309, 306, 303, 303, 300, 294, 293, 301, 320, 342, 364, 389, 423, 457, 481, 494, 494, 488, 460, 408, 350, 310, 293, 293, 298, 303, 308, 310, 308, 308, 308, 308, 307, 309, 309, 306, 306, 306, 306, 306, 306, 306, 306, 306, 306, 306, 307, 306, 305, 305, 305, 305, 306, 306, 305, 305, 305, 305, 306, 306, 306, 305, 305, 306, 306, 304, 304, 302, 303, 305, 305, 305, 305, 305, 305, 306, 306, 306, 304, 303, 304, 304, 306, 306, 306, 305, 304, 304, 306, 306, 305, 305, 302, 302, 304, 304, 304, 301, 319, 329, 329.5, 339, 293, 339, 314.5, 494, 293, 313, 306.0, 460, 301, 304, 305.0, 306, 293, 334, 324.0, 494, 293, 326, 308.5, 494, 293, 308, 306.0, 460]",0
"[350, 330, 333, 334, 334, 335, 335, 336, 336, 339, 339, 339, 339, 339, 340, 343, 343, 341, 339, 339, 338, 338, 341, 342, 342, 342, 342, 342, 344, 346, 346, 343, 339, 339, 335, 335, 332, 330, 328, 328, 328, 328, 328, 326, 326, 325, 325, 325, 326, 325, 325, 325, 325, 324, 324, 324, 324, 325, 325, 325, 325, 323, 319, 314, 311, 308, 305, 302, 304, 317, 337, 356, 371, 387, 411, 445, 479, 500, 510, 508, 490, 442, 380, 324, 304, 307, 315, 315, 319, 319, 318, 317, 316, 316, 316, 317, 317, 317, 317, 317, 316, 317, 317, 317, 317, 314, 314, 314, 315, 315, 315, 315, 315, 315, 315, 315, 313, 312, 312, 312, 314, 314, 313, 312, 311, 312, 312, 314, 314, 314, 312, 312, 312, 314, 314, 313, 311, 312, 312, 314, 314, 314, 314, 313, 313, 313, 314, 313, 313, 312, 313, 314, 314, 313, 312, 310, 310, 310, 311, 311, 328, 338, 339.0, 350, 302, 348, 325.0, 510, 304, 324, 316.0, 490, 310, 312, 313.0, 314, 302, 343, 335.0, 510, 302, 336, 317.5, 510, 304, 318, 314.0, 490]",0
"[369, 362, 358, 355, 355, 355, 351, 351, 351, 346, 338, 332, 330, 330, 331, 331, 331, 331, 331, 328, 328, 329, 329, 330, 330, 327, 327, 325, 328, 333, 335, 332, 324, 318, 321, 328, 332, 329, 329, 325, 326, 329, 329, 328, 330, 334, 338, 337, 335, 335, 332, 329, 326, 326, 332, 332, 335, 335, 338, 344, 348, 350, 347, 343, 343, 349, 359, 369, 375, 383, 395, 405, 410, 418, 433, 455, 477, 488, 488, 479, 458, 431, 403, 378, 359, 339, 309, 266, 217, 176, 164, 169, 183, 195, 201, 201, 197, 195, 197, 201, 204, 207, 215, 225, 233, 238, 243, 253, 266, 279, 286, 289, 294, 303, 313, 321, 326, 326, 328, 328, 334, 339, 343, 345, 343, 343, 341, 342, 345, 347, 347, 344, 340, 340, 345, 348, 354, 356, 358, 361, 364, 367, 369, 371, 373, 374, 376, 378, 383, 392, 398, 400, 399, 402, 407, 409, 405, 407, 421, 433, 318, 335, 331.0, 369, 326, 366, 343.0, 488, 164, 267, 259.5, 458, 334, 368, 362.5, 433, 318, 351, 334.5, 488, 164, 317, 329.0, 488, 164, 318, 341.5, 458]",1
"[406, 405, 406, 409, 407, 402, 401, 402, 402, 399, 393, 389, 383, 382, 384, 384, 380, 375, 372, 372, 371, 369, 369, 372, 374, 369, 365, 362, 358, 353, 348, 346, 346, 351, 350, 347, 343, 343, 347, 349, 349, 348, 348, 348, 348, 348, 348, 348, 348, 348, 350, 348, 348, 348, 350, 352, 355, 357, 361, 363, 362, 361, 361, 360, 361, 366, 368, 369, 375, 382, 390, 399, 409, 420, 433, 450, 472, 497, 516, 524, 525, 507, 472, 434, 395, 356, 316, 277, 242, 211, 182, 159, 153, 164, 185, 207, 216, 218, 218, 214, 214, 216, 220, 225, 232, 239, 247, 255, 264, 280, 297, 307, 314, 323, 333, 343, 349, 351, 349, 349, 354, 359, 361, 361, 361, 361, 365, 365, 364, 362, 359, 359, 363, 366, 368, 368, 371, 376, 381, 387, 390, 388, 383, 380, 380, 386, 391, 392, 395, 399, 405, 411, 412, 411, 412, 417, 424, 434, 444, 453, 343, 374, 372.0, 409, 348, 379, 361.0, 524, 153, 283, 259.5, 525, 354, 385, 380.5, 453, 343, 377, 367.0, 524, 153, 331, 348.0, 525, 153, 334, 361.0, 525]",1
"[385, 383, 378, 373, 373, 373, 373, 370, 368, 366, 363, 361, 361, 359, 356, 352, 350, 348, 349, 348, 345, 340, 340, 340, 341, 341, 338, 335, 335, 335, 335, 335, 335, 333, 333, 333, 333, 331, 331, 332, 332, 330, 331, 335, 337, 337, 334, 334, 336, 339, 341, 338, 338, 338, 338, 337, 339, 339, 337, 337, 341, 343, 344, 345, 346, 346, 349, 352, 356, 360, 364, 371, 380, 390, 400, 411, 423, 438, 457, 474, 484, 484, 465, 425, 370, 310, 256, 218, 189, 164, 139, 116, 106, 109, 121, 138, 157, 173, 180, 182, 184, 187, 191, 196, 200, 206, 214, 223, 230, 237, 248, 262, 273, 285, 294, 304, 314, 321, 328, 333, 338, 341, 345, 348, 350, 351, 351, 351, 353, 356, 360, 360, 363, 363, 362, 361, 362, 366, 366, 369, 369, 373, 376, 379, 381, 383, 383, 383, 389, 392, 394, 394, 398, 401, 405, 411, 415, 419, 422, 427, 331, 350, 346.5, 385, 330, 357, 341.0, 474, 106, 245, 220.5, 484, 338, 375, 369.0, 427, 330, 354, 342.0, 474, 106, 301, 334.5, 484, 106, 310, 350.5, 484]",1
"[381, 380, 380, 378, 382, 386, 386, 381, 377, 377, 372, 370, 369, 365, 361, 358, 358, 360, 361, 359, 356, 352, 349, 349, 347, 346, 346, 346, 342, 341, 341, 340, 340, 340, 337, 336, 337, 337, 333, 331, 330, 331, 333, 335, 335, 331, 331, 333, 335, 337, 336, 334, 335, 337, 337, 343, 343, 342, 341, 342, 344, 347, 349, 349, 352, 356, 361, 367, 372, 377, 382, 388, 396, 405, 414, 424, 439, 456, 475, 494, 503, 497, 477, 441, 401, 360, 321, 286, 249, 209, 172, 136, 114, 115, 126, 144, 164, 181, 193, 198, 199, 199, 202, 209, 218, 223, 227, 232, 239, 247, 256, 266, 273, 279, 284, 289, 292, 297, 300, 300, 300, 306, 313, 320, 320, 320, 326, 328, 332, 337, 342, 346, 348, 348, 345, 345, 348, 350, 349, 349, 350, 350, 356, 358, 359, 360, 361, 364, 367, 367, 367, 372, 376, 380, 384, 389, 392, 392, 393, 397, 331, 357, 357.0, 386, 330, 364, 343.5, 494, 114, 257, 243.0, 503, 300, 352, 350.0, 397, 330, 360, 349.0, 494, 114, 311, 333.5, 503, 114, 305, 323.5, 503]",1
"[365, 364, 363, 360, 357, 353, 352, 351, 349, 344, 338, 338, 336, 336, 336, 334, 328, 324, 322, 321, 322, 322, 321, 318, 313, 313, 315, 315, 312, 312, 312, 313, 315, 315, 309, 305, 305, 305, 307, 309, 309, 306, 304, 304, 308, 313, 313, 311, 308, 308, 308, 311, 314, 315, 313, 313, 317, 320, 319, 317, 318, 321, 326, 330, 335, 335, 335, 340, 346, 353, 361, 370, 379, 389, 407, 429, 450, 466, 472, 468, 456, 440, 423, 405, 386, 363, 331, 293, 250, 213, 189, 187, 199, 213, 220, 221, 217, 208, 204, 206, 213, 218, 221, 225, 230, 237, 245, 253, 263, 271, 277, 282, 287, 294, 302, 308, 310, 312, 314, 314, 314, 313, 314, 316, 319, 321, 321, 323, 322, 321, 322, 324, 326, 326, 324, 324, 325, 326, 330, 332, 332, 330, 331, 332, 335, 337, 336, 336, 338, 342, 347, 347, 349, 349, 349, 357, 366, 367, 364, 363, 305, 328, 322.0, 365, 304, 344, 319.5, 472, 187, 275, 258.0, 456, 313, 333, 330.5, 367, 304, 336, 321.0, 472, 187, 309, 311.5, 472, 187, 304, 321.0, 456]",1
"[342, 344, 341, 342, 345, 345, 341, 331, 319, 321, 331, 341, 341, 340, 341, 343, 343, 342, 341, 343, 347, 343, 334, 331, 338, 350, 359, 360, 357, 357, 365, 378, 385, 386, 384, 381, 386, 393, 394, 393, 389, 389, 389, 393, 394, 386, 373, 355, 347, 351, 357, 356, 344, 340, 345, 352, 355, 349, 337, 332, 337, 347, 347, 344, 337, 331, 326, 326, 323, 326, 347, 389, 452, 521, 578, 617, 641, 651, 653, 650, 633, 593, 522, 444, 363, 312, 312, 334, 347, 348, 346, 341, 335, 332, 331, 332, 332, 325, 325, 331, 336, 337, 336, 329, 325, 326, 331, 335, 332, 329, 326, 323, 321, 322, 322, 322, 323, 327, 329, 329, 331, 332, 332, 331, 333, 341, 343, 343, 337, 337, 341, 341, 339, 339, 342, 342, 345, 344, 345, 348, 348, 344, 340, 340, 342, 343, 348, 352, 355, 360, 364, 362, 360, 355, 350, 350, 360, 371, 372, 370, 319, 352, 343.0, 394, 323, 401, 353.5, 653, 312, 352, 331.0, 633, 331, 346, 343.5, 372, 319, 377, 347.0, 653, 312, 377, 338.5, 653, 312, 349, 339.5, 633]",0
"[314, 314, 322, 325, 325, 321, 321, 321, 323, 323, 323, 323, 323, 319, 313, 311, 314, 318, 320, 322, 323, 323, 318, 317, 318, 323, 327, 330, 333, 334, 335, 340, 344, 349, 354, 360, 362, 364, 365, 365, 368, 367, 364, 362, 361, 358, 354, 345, 339, 331, 329, 328, 328, 330, 330, 328, 320, 311, 309, 311, 312, 312, 311, 311, 311, 311, 311, 309, 304, 303, 323, 362, 416, 480, 545, 592, 616, 625, 626, 620, 601, 557, 478, 400, 318, 269, 275, 291, 295, 291, 286, 286, 284, 285, 287, 291, 291, 291, 289, 289, 289, 291, 291, 288, 282, 280, 279, 282, 285, 287, 287, 287, 289, 291, 293, 290, 285, 285, 286, 287, 287, 290, 294, 294, 295, 293, 290, 287, 286, 285, 285, 290, 294, 296, 296, 296, 296, 299, 302, 305, 307, 307, 309, 309, 309, 309, 309, 308, 310, 314, 320, 323, 323, 323, 322, 322, 326, 330, 337, 344, 311, 329, 323.0, 365, 303, 376, 330.0, 626, 269, 309, 288.5, 601, 285, 305, 306.0, 344, 303, 353, 325.0, 626, 269, 343, 311.0, 626, 269, 307, 291.0, 601]",0
"[321, 320, 317, 314, 314, 317, 321, 320, 318, 317, 317, 314, 314, 315, 315, 316, 314, 312, 312, 312, 312, 316, 320, 324, 327, 328, 325, 321, 321, 326, 334, 340, 343, 342, 343, 351, 359, 362, 362, 360, 359, 358, 357, 357, 354, 348, 343, 336, 335, 335, 331, 325, 319, 313, 313, 312, 312, 312, 313, 312, 312, 313, 316, 315, 312, 309, 304, 302, 302, 311, 331, 368, 420, 481, 544, 591, 618, 630, 632, 630, 615, 580, 516, 436, 354, 283, 281, 303, 312, 305, 296, 295, 302, 305, 302, 298, 296, 297, 303, 307, 309, 309, 305, 303, 304, 310, 314, 315, 313, 311, 306, 306, 309, 308, 303, 299, 300, 305, 309, 309, 310, 310, 310, 310, 315, 316, 314, 311, 311, 313, 316, 317, 317, 315, 316, 319, 323, 326, 325, 325, 323, 323, 325, 328, 328, 329, 329, 329, 331, 335, 335, 335, 335, 341, 344, 350, 352, 352, 354, 354, 312, 325, 320.0, 362, 302, 374, 331.0, 632, 281, 328, 305.5, 615, 310, 326, 325.0, 354, 302, 350, 321.0, 632, 281, 351, 312.0, 632, 281, 327, 313.5, 615]",0
"[320, 320, 318, 318, 320, 319, 319, 318, 319, 321, 322, 321, 317, 317, 319, 322, 322, 320, 318, 318, 320, 323, 326, 329, 331, 333, 335, 337, 337, 341, 346, 350, 355, 360, 364, 367, 367, 365, 365, 365, 367, 367, 363, 354, 346, 339, 335, 332, 329, 323, 319, 316, 314, 313, 311, 310, 310, 310, 313, 315, 315, 315, 313, 313, 308, 306, 302, 292, 286, 292, 318, 367, 432, 501, 558, 601, 624, 637, 639, 632, 608, 558, 484, 403, 321, 270, 279, 299, 300, 295, 295, 296, 299, 299, 299, 297, 292, 290, 290, 291, 294, 294, 295, 297, 297, 297, 293, 291, 287, 284, 284, 283, 281, 282, 285, 290, 293, 293, 294, 292, 289, 288, 290, 292, 292, 292, 295, 294, 291, 291, 290, 291, 295, 298, 300, 300, 297, 295, 295, 298, 300, 300, 301, 301, 302, 305, 308, 308, 308, 309, 312, 316, 321, 326, 328, 327, 320, 317, 318, 323, 317, 332, 322.0, 367, 286, 373, 318.5, 639, 270, 314, 294.0, 608, 288, 303, 300.0, 328, 286, 353, 322.0, 639, 270, 343, 307.0, 639, 270, 308, 295.5, 608]",0
"[350, 304, 304, 304, 306, 306, 308, 307, 304, 302, 301, 301, 302, 302, 302, 307, 307, 308, 308, 308, 307, 307, 310, 315, 320, 322, 322, 325, 328, 333, 338, 343, 345, 346, 347, 347, 347, 351, 350, 348, 345, 341, 337, 333, 328, 324, 324, 320, 317, 314, 311, 307, 307, 302, 303, 306, 307, 306, 304, 302, 304, 306, 306, 303, 299, 294, 291, 290, 295, 306, 325, 362, 415, 476, 536, 579, 606, 621, 634, 634, 628, 606, 564, 498, 417, 335, 266, 265, 282, 293, 294, 291, 288, 289, 292, 294, 294, 294, 296, 296, 295, 293, 293, 295, 296, 295, 293, 293, 292, 292, 295, 296, 295, 295, 295, 292, 292, 293, 294, 293, 293, 293, 296, 298, 298, 298, 298, 298, 300, 301, 301, 301, 299, 299, 300, 303, 304, 304, 304, 304, 304, 307, 309, 310, 310, 310, 310, 310, 314, 314, 313, 312, 312, 315, 318, 320, 322, 324, 325, 330, 301, 319, 308.0, 351, 290, 363, 312.5, 634, 265, 323, 294.0, 628, 293, 307, 304.0, 330, 290, 341, 309.0, 634, 265, 343, 302.0, 634, 265, 315, 298.0, 628]",0
"[319, 319, 319, 320, 323, 326, 324, 322, 317, 317, 320, 324, 324, 323, 320, 320, 321, 323, 324, 325, 325, 329, 330, 331, 331, 333, 332, 333, 337, 343, 353, 363, 370, 373, 371, 368, 366, 365, 366, 366, 368, 365, 361, 354, 345, 338, 333, 332, 332, 328, 323, 318, 316, 316, 318, 320, 320, 319, 318, 319, 319, 319, 320, 319, 315, 309, 303, 299, 297, 303, 325, 366, 424, 492, 559, 605, 630, 644, 645, 642, 629, 595, 537, 457, 378, 301, 275, 289, 303, 307, 307, 307, 305, 306, 304, 303, 303, 301, 302, 302, 299, 298, 298, 300, 300, 300, 300, 299, 299, 299, 300, 301, 301, 297, 295, 294, 297, 300, 300, 300, 301, 301, 301, 301, 303, 302, 302, 304, 304, 308, 305, 301, 301, 304, 307, 310, 310, 310, 310, 308, 309, 309, 309, 309, 310, 310, 312, 315, 317, 318, 317, 318, 320, 323, 326, 328, 329, 329, 330, 334, 317, 335, 325.5, 373, 297, 376, 324.0, 645, 275, 327, 300.5, 629, 301, 311, 309.5, 334, 297, 356, 325.0, 645, 275, 352, 312.0, 645, 275, 319, 304.0, 629]",0
"[317, 318, 321, 320, 318, 317, 317, 319, 319, 321, 321, 321, 318, 319, 320, 320, 320, 321, 321, 325, 328, 328, 331, 331, 331, 336, 342, 350, 357, 362, 367, 367, 369, 368, 368, 372, 374, 374, 374, 372, 369, 364, 357, 349, 343, 341, 339, 336, 330, 325, 321, 319, 319, 319, 319, 317, 317, 317, 317, 316, 316, 314, 314, 315, 316, 313, 308, 301, 297, 303, 330, 372, 432, 496, 560, 607, 635, 646, 648, 643, 621, 573, 495, 413, 332, 284, 288, 305, 310, 309, 305, 305, 305, 304, 304, 305, 304, 302, 300, 299, 299, 301, 302, 302, 299, 298, 298, 298, 301, 301, 301, 300, 299, 300, 301, 301, 299, 299, 299, 300, 302, 301, 301, 301, 299, 303, 305, 305, 305, 303, 302, 304, 308, 310, 312, 311, 309, 306, 306, 306, 305, 304, 305, 309, 313, 316, 316, 315, 315, 315, 318, 322, 324, 324, 324, 325, 332, 337, 341, 345, 317, 337, 326.5, 374, 297, 377, 323.0, 648, 284, 324, 301.0, 621, 299, 312, 309.0, 345, 297, 357, 325.0, 648, 284, 350, 313.5, 648, 284, 318, 305.0, 621]",0
"[350, 388, 391, 394, 396, 398, 400, 403, 403, 408, 408, 407, 406, 408, 411, 413, 414, 413, 413, 412, 415, 417, 417, 416, 414, 412, 412, 411, 409, 405, 400, 397, 397, 393, 392, 388, 382, 379, 376, 376, 374, 371, 368, 365, 365, 365, 363, 361, 358, 357, 356, 357, 360, 360, 358, 355, 354, 355, 357, 357, 358, 358, 358, 362, 370, 376, 382, 390, 401, 414, 432, 453, 474, 497, 519, 542, 565, 585, 597, 605, 608, 604, 591, 573, 548, 514, 472, 426, 384, 357, 342, 329, 318, 318, 311, 313, 314, 310, 306, 296, 290, 290, 290, 290, 292, 300, 310, 320, 329, 333, 333, 333, 332, 332, 334, 334, 336, 337, 338, 341, 344, 344, 348, 349, 349, 353, 356, 358, 359, 359, 360, 363, 366, 368, 368, 370, 371, 372, 374, 377, 377, 376, 376, 376, 376, 380, 380, 380, 377, 377, 377, 377, 377, 377, 375, 374, 374, 374, 375, 374, 350, 401, 405.5, 417, 354, 406, 365.0, 605, 290, 365, 332.5, 608, 344, 368, 374.0, 380, 350, 403, 396.5, 605, 290, 386, 358.0, 608, 290, 367, 359.0, 608]",1
"[353, 356, 358, 359, 359, 360, 363, 366, 368, 368, 370, 371, 372, 374, 377, 377, 376, 376, 376, 376, 380, 380, 380, 377, 377, 377, 377, 377, 377, 375, 374, 374, 374, 375, 374, 374, 370, 369, 369, 370, 370, 367, 365, 364, 364, 364, 364, 364, 361, 361, 357, 357, 357, 356, 356, 353, 353, 354, 355, 354, 354, 357, 364, 372, 379, 384, 389, 397, 406, 418, 433, 447, 459, 469, 479, 490, 503, 512, 518, 521, 520, 511, 492, 465, 432, 401, 380, 368, 366, 366, 364, 358, 351, 342, 328, 311, 295, 283, 278, 275, 275, 279, 283, 286, 290, 295, 302, 309, 311, 314, 315, 316, 320, 325, 325, 325, 325, 328, 330, 333, 335, 336, 336, 336, 335, 339, 342, 342, 343, 343, 343, 346, 351, 351, 351, 350, 350, 352, 353, 354, 354, 354, 354, 357, 359, 361, 360, 360, 360, 362, 365, 365, 365, 365, 365, 369, 372, 374, 374, 374, 353, 371, 374.0, 380, 353, 396, 364.5, 521, 275, 341, 325.0, 520, 335, 353, 354.0, 374, 353, 383, 372.0, 521, 275, 368, 357.5, 521, 275, 347, 350.0, 520]",1
"[343, 346, 351, 351, 351, 350, 350, 352, 353, 354, 354, 354, 354, 357, 359, 361, 360, 360, 360, 362, 365, 365, 365, 365, 365, 369, 372, 374, 374, 374, 374, 375, 377, 381, 382, 382, 382, 381, 383, 384, 382, 379, 374, 370, 368, 369, 369, 366, 363, 360, 360, 360, 360, 359, 357, 354, 351, 351, 351, 351, 351, 351, 354, 357, 362, 366, 371, 380, 393, 409, 425, 439, 455, 471, 490, 510, 528, 541, 549, 554, 556, 553, 541, 523, 503, 473, 435, 394, 360, 336, 320, 308, 301, 295, 294, 295, 295, 294, 292, 288, 288, 287, 288, 287, 287, 287, 287, 287, 286, 283, 281, 280, 281, 284, 288, 288, 291, 295, 301, 306, 312, 316, 321, 321, 322, 326, 326, 329, 329, 329, 330, 331, 332, 333, 333, 333, 331, 331, 334, 336, 337, 337, 336, 336, 338, 340, 342, 341, 341, 341, 342, 344, 344, 346, 346, 347, 350, 354, 356, 357, 343, 364, 363.5, 384, 351, 397, 368.5, 554, 280, 335, 294.0, 556, 312, 335, 336.0, 357, 343, 381, 365.0, 554, 280, 366, 357.0, 556, 280, 335, 329.5, 556]",1
"[343, 340, 339, 344, 350, 353, 353, 349, 349, 352, 356, 357, 355, 352, 347, 341, 341, 341, 341, 341, 341, 341, 344, 341, 341, 341, 341, 341, 343, 346, 344, 340, 339, 340, 341, 340, 337, 335, 337, 340, 342, 342, 341, 341, 339, 335, 334, 337, 337, 341, 340, 338, 340, 344, 347, 347, 345, 341, 340, 343, 346, 346, 343, 340, 338, 339, 341, 341, 341, 345, 350, 363, 381, 401, 421, 440, 459, 476, 489, 492, 480, 458, 434, 405, 367, 329, 297, 273, 268, 276, 292, 301, 307, 313, 320, 326, 333, 341, 344, 344, 342, 341, 342, 347, 352, 352, 352, 351, 353, 355, 355, 359, 359, 360, 362, 363, 362, 361, 361, 362, 366, 374, 382, 383, 381, 376, 374, 376, 382, 382, 385, 384, 385, 389, 394, 397, 398, 398, 400, 402, 404, 406, 406, 406, 407, 410, 414, 416, 415, 412, 408, 407, 409, 415, 415, 411, 406, 399, 396, 396, 335, 343, 341.0, 357, 334, 362, 342.0, 492, 268, 347, 351.5, 480, 366, 396, 398.5, 416, 334, 353, 341.0, 492, 268, 355, 344.0, 492, 268, 372, 376.0, 480]",0
"[349, 354, 360, 362, 362, 360, 360, 364, 366, 366, 361, 357, 357, 355, 355, 355, 354, 350, 346, 345, 348, 351, 353, 353, 351, 349, 349, 347, 344, 341, 340, 344, 346, 347, 346, 346, 346, 346, 346, 346, 346, 346, 348, 346, 341, 341, 341, 341, 341, 341, 343, 344, 347, 347, 347, 347, 347, 349, 350, 349, 346, 345, 345, 345, 345, 344, 343, 341, 342, 348, 359, 376, 395, 413, 431, 449, 467, 482, 488, 488, 476, 452, 430, 411, 382, 344, 306, 276, 265, 271, 284, 295, 301, 312, 323, 333, 339, 341, 342, 342, 344, 346, 348, 350, 350, 350, 350, 354, 357, 359, 358, 357, 357, 358, 360, 360, 359, 361, 364, 366, 369, 372, 373, 373, 374, 377, 382, 384, 383, 381, 379, 379, 383, 387, 390, 390, 392, 394, 396, 398, 398, 400, 401, 405, 408, 411, 410, 408, 406, 405, 404, 406, 406, 406, 406, 406, 407, 407, 407, 407, 340, 351, 350.5, 366, 341, 367, 346.5, 488, 265, 348, 350.0, 476, 369, 394, 398.0, 411, 340, 359, 347.5, 488, 265, 357, 347.0, 488, 265, 371, 375.5, 476]",0
"[359, 358, 355, 353, 354, 360, 365, 365, 367, 365, 364, 363, 362, 362, 361, 359, 357, 355, 355, 355, 356, 353, 350, 347, 347, 350, 352, 350, 347, 347, 347, 347, 352, 353, 350, 345, 342, 343, 345, 346, 346, 347, 347, 352, 354, 352, 347, 346, 346, 350, 352, 351, 348, 345, 345, 348, 348, 349, 347, 347, 344, 347, 351, 351, 351, 351, 350, 350, 352, 355, 361, 372, 386, 403, 421, 438, 453, 466, 472, 473, 471, 460, 444, 428, 408, 379, 345, 312, 283, 267, 269, 284, 297, 307, 316, 322, 327, 333, 338, 344, 347, 347, 347, 348, 352, 352, 356, 356, 356, 356, 358, 360, 361, 361, 358, 356, 357, 361, 365, 365, 364, 364, 366, 369, 373, 373, 376, 378, 380, 383, 383, 383, 385, 385, 386, 389, 394, 394, 398, 400, 399, 401, 406, 409, 409, 409, 408, 407, 409, 413, 414, 413, 412, 411, 411, 411, 413, 413, 410, 407, 342, 354, 353.5, 367, 344, 367, 351.0, 473, 267, 351, 354.0, 471, 364, 395, 399.5, 414, 342, 360, 352.0, 473, 267, 359, 351.0, 473, 267, 373, 374.5, 471]",0
"[372, 372, 369, 366, 362, 361, 361, 360, 359, 359, 357, 358, 358, 357, 355, 355, 355, 356, 359, 360, 355, 351, 349, 349, 351, 353, 352, 351, 351, 351, 351, 354, 355, 353, 353, 351, 352, 356, 357, 357, 355, 355, 355, 355, 354, 354, 354, 352, 353, 353, 356, 356, 356, 352, 352, 354, 356, 356, 354, 354, 353, 354, 355, 355, 352, 351, 353, 362, 373, 387, 400, 413, 426, 443, 458, 470, 475, 478, 479, 477, 471, 461, 452, 439, 419, 388, 355, 329, 308, 290, 275, 271, 278, 288, 295, 298, 302, 311, 322, 333, 338, 342, 342, 344, 349, 353, 353, 353, 355, 355, 355, 356, 358, 358, 357, 356, 357, 359, 361, 361, 361, 361, 363, 365, 367, 367, 367, 366, 368, 369, 373, 373, 374, 374, 374, 377, 381, 385, 385, 388, 388, 390, 393, 396, 397, 397, 401, 402, 404, 406, 406, 406, 405, 406, 410, 413, 412, 411, 411, 412, 349, 356, 355.5, 372, 351, 380, 355.0, 479, 271, 348, 353.0, 471, 361, 387, 388.0, 413, 349, 368, 355.0, 479, 271, 364, 355.0, 479, 271, 368, 367.0, 471]",0
"[359, 359, 357, 357, 357, 359, 361, 363, 363, 363, 365, 366, 367, 369, 368, 365, 365, 365, 365, 363, 361, 359, 355, 353, 354, 354, 355, 355, 353, 352, 354, 353, 353, 353, 353, 353, 352, 352, 352, 351, 350, 350, 351, 353, 353, 354, 353, 352, 353, 353, 353, 356, 356, 355, 355, 354, 354, 353, 351, 351, 351, 352, 354, 354, 355, 353, 352, 352, 352, 352, 355, 363, 375, 393, 413, 432, 449, 465, 477, 483, 484, 476, 460, 432, 393, 348, 309, 283, 275, 281, 292, 303, 313, 325, 334, 341, 345, 348, 351, 354, 355, 355, 355, 355, 355, 357, 360, 360, 360, 360, 361, 363, 365, 366, 365, 365, 367, 369, 372, 372, 373, 373, 373, 375, 379, 381, 381, 383, 385, 388, 392, 395, 397, 398, 398, 400, 404, 406, 406, 407, 407, 410, 412, 415, 415, 416, 414, 414, 414, 418, 418, 417, 414, 413, 414, 414, 412, 412, 408, 405, 351, 358, 357.0, 369, 350, 369, 353.5, 483, 275, 357, 356.0, 484, 373, 401, 406.5, 418, 350, 364, 354.5, 483, 275, 363, 354.5, 484, 275, 379, 380.0, 484]",0
"[342, 339, 336, 334, 332, 331, 329, 325, 323, 320, 316, 316, 312, 309, 306, 303, 303, 303, 303, 304, 304, 304, 304, 300, 298, 297, 295, 295, 295, 297, 298, 300, 300, 299, 299, 299, 297, 297, 297, 295, 295, 296, 298, 299, 299, 302, 302, 302, 302, 302, 302, 302, 302, 301, 301, 302, 302, 302, 302, 302, 308, 318, 330, 347, 367, 387, 411, 438, 465, 492, 520, 552, 583, 610, 636, 656, 671, 679, 691, 695, 697, 697, 697, 679, 667, 654, 642, 642, 642, 634, 634, 631, 622, 607, 588, 562, 536, 506, 470, 427, 381, 336, 298, 275, 266, 266, 269, 270, 270, 266, 259, 250, 243, 239, 236, 234, 233, 233, 232, 231, 230, 230, 223, 218, 217, 216, 214, 213, 214, 212, 212, 212, 208, 206, 204, 202, 199, 197, 194, 192, 190, 188, 187, 187, 185, 183, 180, 176, 170, 168, 168, 162, 158, 156, 156, 154, 152, 149, 147, 143, 295, 308, 303.0, 342, 295, 404, 305.0, 695, 231, 438, 404.0, 697, 143, 189, 191.0, 230, 295, 356, 303.0, 695, 231, 421, 324.0, 697, 143, 313, 230.5, 697]",1
"[337, 333, 329, 326, 324, 324, 320, 316, 313, 308, 304, 299, 295, 291, 286, 286, 286, 282, 283, 283, 281, 280, 279, 277, 275, 273, 272, 271, 271, 271, 271, 271, 271, 271, 271, 271, 269, 269, 267, 266, 267, 268, 268, 272, 272, 273, 273, 273, 273, 273, 274, 274, 275, 275, 274, 275, 276, 278, 277, 279, 284, 294, 308, 326, 346, 366, 390, 418, 445, 473, 504, 534, 564, 594, 618, 638, 653, 664, 669, 669, 670, 667, 661, 656, 644, 634, 624, 618, 618, 612, 611, 606, 598, 585, 568, 545, 522, 492, 455, 410, 361, 313, 274, 251, 244, 247, 249, 251, 250, 246, 238, 230, 223, 218, 215, 213, 213, 213, 213, 212, 209, 206, 206, 204, 201, 198, 198, 198, 198, 197, 197, 195, 194, 192, 189, 186, 183, 180, 178, 178, 178, 178, 178, 179, 179, 180, 180, 177, 173, 171, 170, 167, 168, 168, 171, 174, 174, 173, 170, 165, 266, 289, 281.5, 337, 267, 380, 281.5, 669, 212, 416, 385.5, 670, 165, 184, 179.5, 209, 266, 334, 281.5, 669, 212, 398, 301.0, 670, 165, 300, 210.5, 670]",1
"[322, 319, 317, 315, 313, 311, 309, 307, 304, 300, 296, 293, 290, 290, 288, 288, 286, 284, 284, 283, 280, 279, 280, 280, 278, 278, 276, 274, 274, 276, 278, 279, 278, 278, 278, 277, 277, 277, 277, 277, 278, 278, 280, 282, 283, 284, 285, 283, 283, 283, 281, 281, 282, 283, 284, 284, 284, 284, 284, 284, 285, 288, 298, 314, 330, 349, 371, 396, 420, 446, 474, 502, 532, 562, 591, 616, 639, 655, 668, 676, 679, 679, 678, 671, 659, 645, 631, 621, 617, 618, 621, 622, 621, 617, 604, 581, 555, 526, 493, 453, 406, 358, 311, 276, 255, 249, 249, 251, 252, 248, 242, 236, 228, 222, 217, 217, 216, 215, 215, 215, 212, 212, 208, 205, 203, 201, 200, 198, 198, 198, 198, 197, 195, 193, 191, 187, 183, 181, 178, 178, 178, 178, 178, 172, 170, 167, 164, 161, 157, 154, 149, 147, 145, 143, 140, 137, 135, 132, 128, 124, 274, 288, 281.5, 322, 278, 376, 285.0, 676, 215, 431, 429.5, 679, 124, 174, 178.0, 212, 274, 332, 284.0, 676, 215, 404, 304.5, 679, 124, 303, 213.5, 679]",1
"[333, 331, 329, 326, 323, 320, 317, 315, 313, 311, 309, 309, 307, 302, 302, 298, 296, 294, 292, 290, 290, 290, 287, 287, 286, 286, 285, 285, 281, 279, 280, 279, 280, 282, 281, 281, 283, 284, 284, 284, 282, 281, 282, 283, 283, 283, 284, 285, 290, 292, 292, 290, 288, 288, 288, 284, 283, 286, 289, 296, 308, 321, 336, 354, 372, 391, 411, 438, 464, 491, 523, 555, 586, 615, 639, 657, 672, 679, 679, 690, 690, 690, 690, 679, 670, 657, 646, 640, 636, 634, 632, 629, 621, 607, 588, 565, 541, 516, 486, 448, 403, 357, 312, 279, 260, 252, 253, 255, 256, 255, 251, 245, 238, 232, 227, 224, 221, 216, 216, 214, 214, 215, 214, 214, 212, 209, 206, 204, 204, 200, 197, 194, 194, 194, 194, 191, 191, 188, 188, 183, 179, 179, 173, 171, 167, 167, 167, 167, 167, 161, 160, 158, 156, 153, 148, 148, 146, 145, 144, 145, 279, 297, 290.0, 333, 281, 397, 302.0, 690, 214, 435, 425.5, 690, 144, 180, 181.0, 215, 279, 347, 292.0, 690, 214, 416, 328.5, 690, 144, 307, 214.5, 690]",1
"[350, 322, 318, 315, 312, 310, 307, 303, 299, 299, 299, 294, 294, 292, 292, 289, 287, 283, 281, 280, 278, 275, 275, 275, 277, 278, 278, 277, 277, 278, 276, 276, 274, 272, 273, 275, 276, 276, 277, 279, 279, 279, 276, 276, 278, 278, 278, 278, 281, 281, 284, 284, 283, 282, 282, 279, 279, 276, 276, 278, 284, 294, 306, 322, 340, 359, 377, 398, 420, 447, 474, 505, 536, 568, 594, 620, 638, 654, 665, 670, 674, 675, 673, 669, 661, 652, 641, 632, 625, 622, 623, 625, 626, 626, 619, 608, 595, 575, 555, 531, 505, 473, 435, 390, 342, 299, 267, 248, 243, 243, 246, 246, 247, 244, 238, 231, 222, 218, 215, 211, 209, 208, 208, 207, 207, 207, 205, 205, 202, 198, 198, 193, 192, 190, 190, 190, 190, 188, 188, 186, 182, 178, 178, 174, 171, 169, 169, 166, 165, 166, 165, 165, 161, 155, 153, 153, 148, 144, 138, 137, 272, 288, 279.5, 350, 276, 376, 284.0, 670, 211, 456, 518.0, 675, 137, 179, 184.0, 209, 272, 332, 283.0, 670, 211, 416, 341.0, 675, 137, 318, 210.0, 675]",1
"[350, 350, 316, 313, 310, 306, 302, 300, 298, 294, 292, 291, 291, 287, 287, 282, 279, 275, 273, 270, 268, 268, 266, 266, 265, 265, 265, 266, 266, 263, 261, 261, 261, 260, 260, 259, 261, 262, 262, 262, 262, 262, 260, 259, 260, 261, 261, 263, 265, 268, 270, 270, 269, 267, 265, 263, 261, 261, 264, 267, 273, 282, 297, 315, 334, 356, 378, 404, 430, 461, 492, 527, 562, 591, 618, 637, 651, 659, 665, 665, 669, 666, 661, 648, 635, 622, 613, 607, 606, 605, 599, 587, 569, 547, 522, 494, 465, 427, 382, 335, 290, 256, 235, 227, 227, 227, 226, 223, 220, 214, 208, 204, 202, 200, 198, 195, 193, 191, 186, 184, 182, 182, 182, 182, 181, 181, 178, 178, 175, 172, 170, 170, 166, 164, 164, 161, 161, 159, 159, 157, 154, 153, 149, 147, 145, 145, 146, 146, 144, 142, 142, 139, 137, 135, 134, 134, 134, 136, 136, 136, 259, 280, 269.0, 350, 259, 371, 271.5, 665, 184, 389, 312.5, 669, 134, 156, 155.5, 182, 259, 326, 270.0, 665, 184, 380, 277.5, 669, 134, 272, 183.0, 669]",1
"[326, 326, 324, 323, 321, 320, 318, 318, 314, 310, 308, 304, 301, 297, 293, 290, 287, 287, 287, 283, 281, 279, 278, 276, 276, 276, 276, 276, 270, 270, 269, 269, 270, 271, 271, 271, 271, 271, 271, 269, 270, 270, 269, 269, 271, 271, 273, 272, 272, 273, 273, 272, 272, 272, 273, 273, 273, 274, 275, 276, 278, 284, 294, 308, 327, 348, 371, 396, 423, 452, 483, 517, 550, 582, 608, 632, 649, 661, 668, 675, 676, 676, 672, 665, 653, 640, 627, 619, 613, 610, 607, 604, 596, 582, 563, 540, 518, 490, 458, 416, 373, 326, 287, 258, 241, 237, 240, 243, 243, 240, 235, 228, 222, 215, 211, 208, 207, 206, 206, 206, 203, 202, 202, 197, 194, 193, 188, 186, 186, 186, 184, 182, 182, 182, 179, 177, 174, 171, 171, 171, 166, 166, 165, 165, 165, 166, 164, 164, 160, 160, 158, 156, 156, 154, 155, 155, 159, 160, 157, 155, 269, 289, 282.0, 326, 269, 373, 277.0, 675, 206, 416, 394.5, 676, 154, 172, 168.5, 203, 269, 331, 280.0, 675, 206, 395, 290.5, 676, 154, 294, 204.5, 676]",1
"[323, 321, 321, 319, 317, 315, 313, 313, 309, 307, 304, 299, 295, 293, 291, 289, 288, 288, 285, 285, 285, 285, 280, 278, 275, 273, 271, 271, 271, 274, 275, 275, 275, 273, 273, 273, 273, 273, 273, 271, 272, 272, 275, 275, 275, 277, 277, 277, 277, 277, 276, 276, 277, 277, 278, 278, 278, 278, 278, 278, 282, 290, 301, 319, 338, 358, 380, 404, 431, 460, 489, 519, 548, 577, 605, 627, 645, 660, 669, 675, 679, 678, 675, 670, 660, 646, 632, 620, 613, 612, 614, 614, 610, 604, 589, 569, 547, 522, 496, 465, 425, 379, 333, 293, 264, 248, 244, 245, 246, 245, 242, 237, 229, 221, 216, 214, 214, 214, 212, 210, 208, 205, 202, 199, 196, 194, 194, 193, 193, 190, 190, 190, 190, 186, 183, 180, 178, 175, 172, 171, 170, 170, 167, 167, 164, 162, 159, 159, 158, 158, 155, 153, 151, 151, 151, 151, 150, 150, 150, 150, 271, 289, 285.0, 323, 272, 377, 280.0, 675, 210, 431, 445.0, 679, 150, 173, 170.5, 208, 271, 333, 285.0, 675, 210, 404, 310.0, 679, 150, 302, 209.0, 679]",1
"[313, 313, 310, 308, 307, 306, 303, 301, 297, 290, 286, 284, 284, 284, 279, 278, 276, 275, 272, 271, 269, 266, 266, 266, 264, 264, 262, 262, 264, 264, 266, 266, 265, 265, 263, 262, 263, 263, 263, 262, 262, 266, 267, 267, 266, 267, 267, 267, 265, 265, 266, 268, 268, 270, 270, 270, 270, 270, 269, 269, 270, 272, 280, 293, 309, 328, 348, 368, 391, 417, 443, 470, 500, 531, 562, 591, 615, 634, 649, 658, 662, 665, 664, 660, 652, 640, 627, 614, 604, 601, 601, 606, 607, 605, 599, 587, 571, 553, 530, 506, 483, 456, 421, 381, 340, 299, 267, 246, 238, 237, 239, 239, 236, 232, 227, 221, 215, 212, 209, 206, 204, 204, 201, 199, 196, 196, 195, 194, 192, 192, 190, 188, 187, 184, 182, 180, 180, 180, 180, 177, 176, 176, 176, 174, 172, 168, 166, 164, 163, 164, 165, 165, 167, 167, 168, 167, 165, 161, 157, 153, 262, 278, 270.0, 313, 262, 356, 270.0, 658, 206, 443, 494.5, 665, 153, 178, 176.5, 204, 262, 317, 270.0, 658, 206, 400, 318.5, 665, 153, 311, 205.0, 665]",1
"[279, 283, 282, 283, 282, 280, 280, 280, 282, 286, 286, 291, 293, 297, 300, 303, 303, 303, 303, 304, 306, 311, 318, 324, 328, 331, 333, 332, 331, 328, 325, 325, 325, 325, 320, 317, 312, 306, 300, 294, 288, 284, 281, 281, 279, 279, 278, 279, 280, 280, 281, 281, 279, 279, 279, 279, 279, 279, 277, 277, 277, 281, 281, 281, 278, 275, 271, 270, 276, 291, 313, 346, 387, 435, 482, 525, 555, 569, 570, 563, 546, 515, 470, 408, 345, 295, 271, 271, 287, 305, 314, 317, 314, 306, 295, 287, 282, 281, 280, 280, 280, 283, 282, 281, 279, 277, 277, 277, 277, 277, 277, 277, 277, 276, 276, 276, 277, 277, 275, 275, 274, 275, 275, 275, 275, 275, 277, 277, 277, 275, 275, 275, 275, 274, 274, 275, 275, 277, 278, 278, 279, 278, 278, 276, 276, 277, 277, 279, 279, 282, 283, 283, 285, 285, 285, 283, 283, 284, 284, 288, 279, 304, 303.0, 333, 270, 328, 280.5, 570, 271, 305, 280.0, 546, 274, 278, 277.0, 288, 270, 316, 289.5, 570, 270, 316, 280.0, 570, 271, 291, 278.0, 546]",0
"[265, 268, 268, 269, 269, 269, 269, 269, 269, 269, 269, 270, 273, 276, 281, 285, 285, 289, 289, 289, 291, 294, 297, 302, 307, 311, 313, 316, 316, 314, 314, 314, 314, 312, 309, 306, 300, 294, 288, 283, 278, 273, 270, 265, 265, 265, 264, 264, 264, 264, 264, 264, 264, 266, 266, 264, 264, 263, 263, 263, 262, 262, 264, 264, 264, 262, 259, 259, 262, 274, 291, 321, 361, 410, 460, 505, 538, 562, 562, 559, 536, 494, 430, 357, 294, 255, 248, 261, 281, 295, 300, 300, 295, 285, 276, 269, 265, 263, 264, 265, 266, 267, 268, 268, 267, 265, 263, 262, 261, 262, 263, 261, 262, 262, 261, 261, 261, 263, 262, 263, 262, 261, 261, 258, 259, 261, 262, 263, 263, 265, 264, 263, 263, 262, 261, 261, 261, 262, 262, 264, 266, 266, 264, 264, 264, 264, 264, 263, 263, 265, 265, 265, 265, 269, 271, 271, 274, 274, 274, 275, 265, 289, 289.0, 316, 259, 312, 264.0, 562, 248, 287, 265.0, 536, 258, 264, 264.0, 275, 259, 301, 273.0, 562, 248, 300, 264.5, 562, 248, 276, 264.0, 536]",0
"[270, 272, 274, 275, 277, 280, 284, 287, 292, 292, 292, 296, 299, 304, 308, 311, 313, 314, 313, 313, 313, 313, 312, 312, 308, 304, 299, 293, 282, 277, 270, 267, 266, 266, 266, 266, 266, 262, 262, 262, 262, 260, 260, 260, 263, 264, 263, 263, 262, 262, 262, 260, 258, 258, 259, 261, 261, 261, 263, 263, 262, 262, 257, 254, 251, 249, 252, 262, 279, 300, 327, 360, 402, 445, 489, 523, 544, 554, 556, 552, 538, 514, 474, 419, 355, 293, 252, 244, 254, 273, 287, 293, 296, 293, 287, 279, 270, 265, 265, 265, 261, 260, 260, 261, 261, 261, 262, 262, 262, 262, 260, 259, 259, 257, 257, 257, 257, 257, 258, 260, 261, 260, 261, 259, 259, 257, 256, 256, 256, 256, 259, 259, 261, 262, 262, 262, 260, 258, 258, 258, 258, 258, 263, 263, 266, 266, 266, 266, 266, 266, 266, 265, 266, 268, 270, 273, 273, 277, 277, 277, 262, 288, 289.5, 314, 249, 315, 262.0, 556, 244, 290, 262.0, 538, 256, 263, 262.0, 277, 249, 301, 273.0, 556, 244, 302, 262.0, 556, 244, 276, 262.0, 538]",0
"[264, 264, 264, 269, 273, 277, 281, 283, 285, 287, 288, 288, 290, 294, 298, 305, 311, 314, 315, 316, 316, 313, 313, 313, 310, 308, 306, 303, 300, 296, 291, 284, 278, 273, 270, 267, 265, 263, 263, 261, 262, 263, 263, 263, 263, 264, 264, 264, 261, 261, 259, 259, 259, 259, 259, 261, 261, 262, 262, 263, 265, 265, 265, 262, 260, 257, 257, 254, 258, 269, 287, 313, 349, 392, 437, 483, 519, 542, 553, 553, 543, 521, 481, 424, 363, 302, 262, 249, 256, 276, 290, 296, 296, 293, 287, 278, 270, 266, 264, 263, 263, 263, 263, 263, 262, 263, 265, 265, 265, 265, 263, 263, 263, 261, 261, 261, 261, 261, 261, 261, 261, 264, 264, 262, 262, 261, 261, 262, 262, 262, 263, 264, 265, 265, 265, 264, 264, 264, 265, 265, 265, 266, 267, 269, 271, 271, 271, 271, 271, 271, 272, 271, 271, 272, 276, 280, 282, 282, 283, 283, 261, 288, 288.0, 316, 254, 306, 263.0, 553, 249, 293, 263.5, 543, 261, 268, 265.0, 283, 254, 297, 271.5, 553, 249, 300, 263.0, 553, 249, 280, 265.0, 543]",0
"[251, 250, 251, 251, 253, 256, 255, 256, 256, 255, 256, 258, 260, 263, 266, 266, 272, 274, 274, 278, 281, 284, 287, 291, 295, 299, 300, 302, 301, 301, 301, 301, 301, 301, 300, 298, 294, 289, 282, 276, 270, 265, 260, 257, 255, 254, 253, 253, 253, 252, 251, 251, 251, 251, 251, 254, 254, 254, 254, 252, 253, 252, 251, 249, 249, 246, 245, 249, 260, 274, 298, 329, 368, 414, 460, 501, 530, 548, 554, 551, 536, 500, 445, 377, 309, 258, 238, 243, 262, 280, 291, 292, 288, 281, 272, 264, 258, 258, 254, 253, 254, 256, 256, 256, 256, 256, 257, 257, 256, 254, 251, 250, 250, 252, 251, 252, 252, 252, 253, 252, 252, 252, 251, 251, 250, 250, 250, 253, 254, 255, 254, 255, 255, 255, 255, 253, 252, 253, 254, 255, 256, 257, 259, 259, 260, 260, 259, 259, 259, 260, 260, 263, 265, 265, 269, 271, 272, 273, 273, 273, 250, 277, 277.0, 302, 245, 304, 254.0, 554, 238, 280, 256.0, 536, 250, 258, 255.5, 273, 245, 290, 261.5, 554, 238, 292, 255.5, 554, 238, 269, 256.0, 536]",0
"[256, 256, 257, 257, 261, 262, 263, 264, 264, 264, 264, 268, 270, 271, 274, 278, 282, 285, 285, 289, 289, 291, 294, 299, 302, 306, 307, 307, 306, 306, 307, 308, 308, 306, 303, 299, 292, 284, 277, 270, 263, 263, 260, 260, 257, 257, 258, 257, 255, 256, 256, 256, 257, 257, 257, 260, 260, 259, 260, 258, 257, 256, 254, 251, 249, 246, 246, 250, 261, 276, 297, 328, 367, 411, 456, 498, 528, 543, 549, 545, 533, 507, 463, 404, 342, 289, 255, 250, 260, 279, 292, 296, 295, 290, 280, 272, 265, 261, 259, 259, 259, 261, 262, 262, 262, 263, 260, 260, 260, 260, 260, 255, 254, 254, 257, 257, 257, 259, 259, 259, 257, 257, 257, 256, 256, 255, 255, 255, 257, 258, 260, 260, 260, 257, 254, 254, 252, 252, 254, 256, 258, 258, 260, 261, 260, 259, 258, 258, 257, 259, 259, 259, 262, 263, 263, 266, 267, 267, 268, 268, 256, 283, 284.5, 308, 246, 305, 258.5, 549, 250, 288, 260.5, 533, 252, 258, 258.0, 268, 246, 294, 266.0, 549, 246, 297, 260.0, 549, 250, 273, 259.5, 533]",0
"[350, 256, 256, 256, 256, 257, 256, 254, 253, 254, 254, 254, 257, 260, 266, 270, 270, 273, 275, 274, 275, 277, 280, 286, 290, 296, 301, 303, 303, 302, 300, 300, 298, 297, 297, 295, 293, 289, 283, 277, 271, 264, 258, 254, 253, 252, 250, 250, 250, 252, 254, 254, 254, 254, 254, 254, 254, 252, 250, 250, 250, 252, 252, 252, 252, 249, 246, 244, 246, 258, 277, 306, 348, 393, 441, 487, 522, 543, 550, 546, 532, 497, 445, 380, 313, 264, 242, 244, 262, 279, 285, 285, 282, 274, 265, 256, 251, 249, 249, 249, 252, 254, 255, 255, 253, 251, 250, 250, 249, 249, 249, 249, 249, 249, 250, 250, 250, 251, 251, 250, 248, 248, 248, 247, 248, 248, 252, 253, 253, 252, 250, 249, 249, 249, 249, 249, 250, 250, 253, 253, 255, 254, 255, 254, 254, 254, 254, 254, 257, 258, 259, 262, 263, 263, 263, 263, 264, 264, 264, 266, 253, 278, 276.0, 350, 244, 299, 254.0, 550, 242, 277, 251.0, 532, 247, 254, 253.5, 266, 244, 289, 259.0, 550, 242, 288, 253.0, 550, 242, 266, 253.0, 532]",0
"[251, 254, 255, 255, 255, 255, 255, 255, 255, 254, 254, 257, 261, 265, 267, 271, 273, 275, 275, 275, 277, 279, 283, 287, 292, 298, 298, 298, 303, 302, 298, 298, 297, 297, 296, 294, 291, 286, 281, 275, 267, 261, 256, 251, 248, 248, 246, 246, 246, 247, 249, 249, 249, 249, 249, 249, 249, 248, 247, 247, 246, 246, 246, 246, 246, 245, 243, 239, 241, 253, 271, 298, 337, 384, 433, 479, 514, 534, 540, 535, 520, 490, 444, 386, 324, 271, 240, 237, 250, 268, 280, 281, 279, 273, 263, 255, 247, 243, 242, 244, 247, 248, 249, 249, 249, 249, 243, 242, 241, 242, 242, 240, 240, 242, 243, 244, 242, 241, 241, 242, 242, 241, 241, 241, 240, 242, 242, 242, 242, 243, 242, 241, 241, 241, 239, 239, 241, 241, 242, 244, 244, 244, 245, 245, 244, 244, 241, 241, 242, 246, 246, 250, 251, 251, 252, 252, 252, 252, 252, 252, 251, 276, 275.0, 303, 239, 294, 249.0, 540, 237, 272, 247.0, 520, 239, 244, 242.0, 252, 239, 285, 259.0, 540, 237, 283, 248.5, 540, 237, 258, 244.0, 520]",0
"[350, 350, 252, 252, 252, 252, 252, 252, 258, 258, 258, 258, 261, 261, 265, 269, 269, 273, 277, 279, 281, 281, 285, 289, 293, 297, 302, 304, 304, 304, 304, 304, 304, 303, 300, 297, 291, 284, 278, 271, 266, 261, 258, 256, 256, 254, 253, 252, 252, 251, 251, 252, 252, 252, 254, 254, 255, 254, 254, 252, 251, 252, 252, 250, 250, 247, 246, 248, 258, 277, 304, 340, 383, 427, 471, 507, 531, 543, 546, 539, 519, 486, 438, 378, 316, 265, 241, 242, 260, 278, 288, 292, 289, 283, 274, 265, 259, 255, 254, 254, 254, 255, 256, 256, 256, 256, 254, 254, 254, 254, 254, 249, 249, 248, 248, 251, 251, 251, 251, 251, 251, 250, 248, 248, 247, 247, 250, 250, 250, 253, 253, 252, 251, 251, 250, 250, 250, 249, 249, 251, 251, 255, 254, 254, 255, 255, 254, 255, 255, 255, 255, 258, 261, 263, 264, 265, 266, 267, 267, 267, 252, 281, 280.0, 350, 246, 305, 254.0, 546, 241, 279, 255.0, 519, 247, 254, 253.0, 267, 246, 293, 263.0, 546, 241, 292, 254.0, 546, 241, 267, 254.0, 519]",0
"[350, 247, 248, 248, 247, 247, 246, 247, 247, 248, 251, 254, 257, 258, 262, 264, 266, 267, 268, 268, 269, 272, 276, 283, 287, 294, 294, 294, 294, 293, 291, 289, 289, 289, 290, 286, 283, 279, 273, 265, 258, 253, 248, 245, 245, 243, 244, 244, 248, 249, 249, 249, 247, 247, 247, 245, 246, 246, 246, 246, 248, 249, 248, 247, 245, 241, 239, 240, 251, 270, 298, 335, 379, 424, 468, 511, 534, 543, 542, 531, 508, 469, 415, 353, 294, 251, 239, 247, 263, 279, 286, 287, 283, 277, 266, 257, 252, 249, 249, 249, 253, 255, 255, 253, 251, 251, 248, 246, 245, 245, 246, 248, 248, 249, 248, 247, 247, 247, 247, 247, 244, 245, 245, 249, 249, 249, 252, 252, 252, 250, 249, 249, 248, 248, 248, 249, 249, 251, 253, 253, 253, 250, 249, 249, 250, 251, 251, 254, 254, 256, 256, 259, 259, 259, 259, 257, 257, 257, 257, 260, 246, 272, 268.5, 350, 239, 299, 248.0, 543, 239, 273, 251.0, 508, 244, 252, 251.0, 260, 239, 285, 257.5, 543, 239, 286, 249.0, 543, 239, 262, 251.0, 508]",0
"[243, 242, 242, 242, 244, 244, 246, 246, 244, 244, 244, 243, 241, 242, 242, 242, 245, 248, 251, 252, 253, 255, 256, 258, 258, 261, 261, 265, 269, 271, 271, 270, 266, 263, 259, 255, 254, 253, 250, 250, 250, 247, 245, 244, 243, 242, 241, 242, 242, 242, 242, 243, 244, 245, 244, 246, 246, 246, 246, 246, 245, 244, 244, 244, 242, 241, 240, 241, 251, 266, 288, 319, 357, 403, 450, 491, 521, 538, 543, 541, 525, 493, 442, 375, 308, 256, 233, 235, 253, 270, 281, 286, 282, 275, 265, 255, 251, 247, 247, 247, 249, 249, 249, 249, 249, 249, 248, 248, 247, 246, 246, 244, 245, 245, 245, 245, 248, 248, 247, 247, 245, 244, 244, 244, 244, 245, 245, 243, 246, 247, 247, 247, 247, 245, 243, 243, 244, 244, 245, 249, 249, 249, 249, 249, 250, 250, 249, 249, 249, 249, 249, 252, 254, 256, 258, 260, 260, 261, 260, 260, 241, 252, 250.5, 271, 240, 294, 245.0, 543, 233, 274, 249.0, 525, 243, 249, 249.0, 261, 240, 273, 246.0, 543, 233, 284, 247.0, 543, 233, 261, 249.0, 525]",0
"[267, 267, 263, 260, 256, 256, 251, 246, 243, 239, 236, 234, 233, 233, 232, 231, 231, 229, 227, 225, 225, 223, 223, 222, 222, 222, 224, 224, 224, 225, 225, 225, 225, 224, 223, 223, 223, 224, 225, 226, 227, 228, 228, 228, 228, 228, 228, 228, 228, 228, 229, 230, 230, 230, 230, 227, 227, 226, 224, 225, 231, 239, 254, 269, 287, 304, 322, 342, 362, 383, 405, 429, 452, 475, 495, 511, 526, 537, 544, 550, 553, 552, 549, 547, 543, 537, 531, 527, 523, 523, 526, 528, 528, 524, 516, 504, 487, 468, 447, 426, 401, 368, 329, 285, 247, 223, 210, 209, 211, 214, 216, 216, 216, 212, 205, 199, 193, 187, 182, 179, 176, 176, 172, 169, 167, 164, 161, 158, 155, 152, 149, 146, 146, 146, 143, 143, 141, 141, 139, 139, 136, 136, 133, 129, 127, 124, 123, 121, 121, 121, 117, 114, 114, 112, 110, 108, 104, 101, 101, 101, 222, 233, 225.5, 267, 224, 311, 230.5, 550, 179, 376, 413.5, 553, 101, 135, 137.5, 176, 222, 272, 230.0, 550, 179, 343, 277.0, 553, 101, 255, 177.5, 553]",1
"[256, 256, 251, 247, 246, 244, 241, 238, 235, 235, 231, 231, 227, 228, 228, 228, 228, 228, 228, 228, 223, 223, 222, 222, 220, 220, 222, 222, 224, 224, 224, 224, 224, 224, 224, 222, 222, 223, 225, 226, 227, 229, 230, 230, 230, 229, 230, 228, 228, 229, 229, 232, 232, 232, 230, 231, 231, 231, 231, 233, 234, 241, 252, 266, 282, 299, 316, 333, 352, 372, 394, 418, 442, 464, 485, 506, 524, 539, 549, 555, 558, 558, 555, 554, 551, 545, 539, 533, 531, 533, 537, 540, 541, 537, 528, 515, 500, 480, 453, 421, 381, 337, 292, 255, 233, 223, 223, 226, 228, 226, 222, 215, 207, 200, 195, 192, 190, 187, 185, 182, 177, 172, 169, 169, 164, 164, 164, 164, 164, 163, 163, 163, 157, 153, 151, 149, 147, 147, 147, 144, 143, 144, 141, 139, 137, 133, 131, 128, 124, 124, 121, 121, 121, 119, 117, 117, 112, 107, 105, 102, 220, 229, 226.5, 256, 227, 310, 233.5, 555, 182, 377, 401.0, 558, 102, 141, 144.0, 177, 220, 270, 230.5, 555, 182, 344, 260.5, 558, 102, 259, 179.5, 558]",1
"[270, 269, 269, 268, 268, 268, 268, 270, 272, 272, 272, 272, 272, 271, 272, 271, 271, 271, 271, 274, 275, 277, 277, 276, 276, 275, 275, 275, 275, 275, 275, 276, 277, 279, 279, 277, 275, 276, 277, 277, 275, 275, 273, 273, 275, 275, 278, 279, 277, 275, 275, 272, 272, 272, 272, 270, 272, 274, 278, 286, 296, 309, 323, 339, 357, 375, 393, 414, 438, 462, 487, 511, 533, 555, 575, 590, 600, 607, 612, 613, 615, 615, 613, 610, 605, 599, 595, 595, 595, 598, 598, 596, 590, 581, 568, 551, 534, 511, 480, 442, 397, 351, 309, 281, 265, 261, 262, 266, 264, 260, 253, 244, 237, 231, 225, 222, 219, 217, 213, 213, 213, 213, 210, 208, 205, 205, 205, 199, 198, 197, 197, 197, 197, 196, 193, 189, 188, 186, 183, 180, 179, 179, 177, 176, 176, 174, 172, 169, 166, 163, 160, 156, 153, 149, 147, 146, 146, 142, 138, 136, 268, 273, 274.5, 279, 270, 372, 291.0, 613, 213, 417, 419.5, 615, 136, 179, 179.5, 213, 268, 322, 275.0, 613, 213, 394, 316.0, 615, 136, 298, 213.0, 615]",1
"[335, 331, 327, 325, 322, 317, 314, 310, 307, 304, 301, 299, 297, 294, 294, 294, 294, 293, 291, 289, 287, 285, 285, 283, 283, 283, 284, 283, 285, 285, 285, 285, 285, 285, 285, 282, 284, 284, 285, 287, 288, 288, 288, 288, 289, 289, 289, 289, 289, 290, 291, 294, 294, 294, 297, 297, 297, 297, 294, 295, 300, 310, 326, 345, 364, 383, 403, 426, 448, 471, 496, 521, 545, 565, 586, 604, 617, 624, 628, 629, 628, 626, 623, 616, 608, 600, 594, 594, 597, 600, 602, 601, 594, 583, 566, 545, 523, 499, 467, 427, 381, 335, 298, 274, 262, 260, 263, 263, 263, 262, 257, 251, 247, 244, 242, 242, 239, 237, 237, 235, 232, 230, 228, 228, 228, 228, 228, 227, 227, 226, 226, 226, 226, 226, 226, 225, 225, 225, 226, 225, 223, 221, 218, 215, 209, 205, 199, 196, 193, 189, 189, 186, 181, 176, 170, 166, 162, 158, 155, 153, 282, 295, 288.0, 335, 288, 385, 298.5, 629, 235, 419, 404.0, 628, 153, 207, 224.0, 232, 282, 340, 294.0, 629, 235, 402, 318.0, 629, 153, 313, 233.5, 628]",1
"[334, 331, 328, 325, 325, 321, 315, 310, 306, 302, 299, 299, 299, 294, 293, 293, 292, 292, 291, 288, 286, 286, 283, 282, 282, 282, 282, 283, 283, 282, 281, 281, 281, 281, 281, 281, 279, 280, 280, 281, 281, 281, 284, 284, 283, 282, 282, 282, 282, 285, 288, 289, 289, 288, 288, 289, 287, 287, 287, 288, 294, 304, 318, 336, 353, 371, 388, 407, 430, 454, 477, 503, 528, 554, 576, 595, 611, 621, 626, 628, 626, 622, 613, 604, 595, 586, 582, 582, 582, 587, 586, 579, 568, 552, 532, 510, 483, 448, 406, 359, 315, 282, 265, 260, 262, 262, 265, 263, 258, 252, 245, 241, 238, 236, 235, 235, 233, 230, 227, 224, 224, 221, 218, 218, 216, 215, 215, 215, 215, 214, 214, 210, 208, 204, 200, 200, 198, 196, 196, 194, 194, 192, 189, 186, 182, 179, 176, 176, 173, 172, 172, 170, 170, 169, 169, 167, 166, 164, 162, 160, 279, 294, 287.0, 334, 281, 377, 291.5, 628, 224, 400, 337.0, 626, 160, 191, 194.0, 224, 279, 335, 289.0, 628, 224, 388, 299.0, 628, 160, 296, 224.0, 626]",1
"[373, 371, 368, 363, 360, 358, 354, 350, 350, 345, 342, 338, 335, 331, 328, 324, 322, 322, 318, 318, 318, 318, 315, 313, 312, 311, 311, 309, 307, 307, 307, 307, 309, 309, 309, 308, 308, 309, 308, 307, 307, 307, 307, 309, 311, 312, 312, 312, 312, 314, 314, 315, 315, 315, 315, 315, 317, 318, 321, 321, 324, 327, 332, 342, 356, 374, 392, 414, 437, 460, 486, 512, 537, 562, 588, 610, 628, 644, 653, 658, 662, 664, 663, 660, 655, 645, 636, 626, 626, 620, 620, 623, 624, 624, 620, 609, 593, 574, 551, 519, 478, 431, 384, 337, 307, 290, 289, 291, 295, 295, 293, 290, 283, 277, 271, 266, 264, 265, 265, 265, 265, 265, 261, 259, 257, 254, 253, 251, 251, 251, 248, 248, 246, 244, 242, 242, 240, 238, 234, 230, 230, 229, 229, 229, 229, 225, 224, 221, 218, 216, 213, 209, 207, 204, 201, 201, 198, 195, 193, 191, 307, 326, 318.0, 373, 307, 397, 322.5, 658, 264, 463, 498.5, 664, 191, 231, 230.0, 265, 307, 362, 319.5, 658, 264, 430, 339.5, 664, 191, 347, 265.0, 664]",1
"[350, 251, 248, 248, 249, 251, 251, 251, 254, 256, 257, 256, 255, 255, 255, 255, 255, 257, 257, 259, 263, 263, 263, 266, 267, 267, 267, 270, 270, 270, 274, 276, 276, 278, 277, 275, 273, 273, 268, 268, 265, 263, 262, 262, 260, 259, 259, 259, 257, 257, 254, 254, 252, 252, 254, 255, 255, 255, 255, 256, 256, 254, 250, 247, 245, 243, 240, 241, 246, 258, 278, 305, 343, 385, 428, 467, 495, 508, 511, 505, 488, 454, 404, 347, 289, 247, 231, 234, 249, 260, 267, 267, 264, 258, 250, 245, 240, 238, 238, 237, 236, 235, 234, 234, 234, 234, 234, 235, 235, 235, 235, 233, 233, 233, 230, 228, 228, 227, 225, 225, 226, 225, 225, 225, 225, 225, 225, 225, 225, 225, 226, 226, 226, 224, 224, 226, 226, 227, 228, 226, 225, 222, 220, 221, 222, 225, 226, 227, 227, 227, 224, 224, 224, 224, 226, 228, 228, 231, 231, 233, 248, 264, 263.0, 350, 240, 296, 257.0, 511, 225, 258, 235.0, 488, 220, 225, 225.0, 233, 240, 280, 258.5, 511, 225, 277, 254.0, 511, 220, 242, 228.0, 488]",0
"[203, 203, 203, 203, 206, 205, 205, 205, 205, 202, 202, 204, 204, 206, 206, 205, 205, 205, 203, 203, 204, 204, 204, 206, 209, 211, 214, 217, 217, 221, 222, 223, 225, 225, 223, 223, 222, 222, 223, 223, 223, 220, 218, 214, 212, 209, 209, 208, 208, 208, 210, 210, 210, 210, 211, 212, 211, 211, 210, 210, 208, 209, 211, 212, 212, 209, 206, 206, 210, 221, 238, 264, 299, 343, 390, 434, 467, 487, 495, 493, 478, 447, 399, 339, 275, 225, 200, 200, 217, 236, 243, 246, 245, 237, 227, 220, 215, 213, 213, 213, 215, 217, 217, 217, 214, 213, 212, 211, 210, 210, 213, 213, 213, 214, 215, 215, 215, 215, 212, 212, 211, 211, 212, 213, 213, 213, 215, 215, 215, 214, 214, 212, 212, 212, 212, 212, 212, 215, 217, 217, 218, 218, 216, 216, 215, 216, 216, 218, 219, 221, 221, 222, 222, 223, 223, 222, 224, 224, 224, 224, 202, 210, 205.5, 225, 206, 256, 211.0, 495, 200, 239, 215.0, 478, 211, 216, 216.0, 224, 202, 233, 210.0, 495, 200, 247, 213.5, 495, 200, 227, 215.0, 478]",0
"[231, 232, 232, 232, 232, 234, 234, 233, 232, 232, 231, 229, 230, 230, 231, 233, 233, 233, 233, 233, 233, 234, 235, 235, 236, 239, 243, 247, 251, 251, 252, 252, 250, 248, 246, 244, 244, 242, 242, 241, 240, 240, 239, 236, 233, 231, 230, 230, 230, 230, 230, 229, 230, 232, 232, 232, 233, 233, 234, 234, 234, 234, 231, 231, 230, 227, 227, 230, 238, 252, 269, 300, 337, 380, 424, 462, 490, 505, 509, 506, 489, 454, 403, 338, 272, 231, 219, 224, 240, 254, 261, 263, 259, 253, 245, 238, 232, 232, 231, 231, 231, 231, 234, 234, 234, 234, 234, 233, 233, 232, 231, 230, 230, 232, 233, 233, 232, 235, 235, 233, 233, 232, 231, 231, 231, 231, 233, 234, 234, 234, 236, 236, 234, 234, 234, 234, 234, 234, 235, 237, 239, 240, 239, 239, 239, 239, 239, 239, 238, 240, 240, 243, 245, 247, 247, 249, 250, 250, 251, 251, 229, 237, 234.0, 252, 227, 279, 233.5, 509, 219, 255, 233.5, 489, 231, 238, 237.5, 251, 227, 258, 234.0, 509, 219, 267, 233.5, 509, 219, 246, 234.0, 489]",0
"[232, 232, 232, 231, 231, 231, 230, 230, 230, 230, 230, 232, 233, 233, 233, 230, 230, 230, 230, 230, 235, 238, 241, 243, 245, 247, 247, 247, 247, 245, 244, 244, 242, 242, 242, 242, 242, 240, 240, 236, 235, 234, 230, 230, 226, 226, 228, 229, 229, 230, 230, 230, 228, 226, 226, 226, 225, 226, 228, 229, 229, 229, 229, 228, 226, 224, 221, 221, 225, 238, 256, 281, 313, 350, 390, 430, 467, 489, 499, 501, 494, 476, 444, 397, 337, 278, 234, 210, 212, 229, 245, 254, 257, 256, 251, 242, 235, 231, 231, 231, 231, 231, 231, 229, 228, 226, 226, 225, 227, 227, 227, 226, 227, 227, 227, 227, 227, 226, 226, 225, 226, 227, 228, 229, 228, 229, 229, 228, 228, 226, 226, 226, 226, 226, 226, 228, 231, 230, 230, 230, 230, 230, 230, 230, 227, 227, 230, 232, 233, 233, 234, 233, 233, 234, 233, 233, 233, 235, 237, 237, 230, 236, 234.0, 247, 221, 270, 229.0, 501, 210, 257, 230.0, 494, 226, 230, 230.0, 237, 221, 253, 231.5, 501, 210, 263, 229.0, 501, 210, 243, 230.0, 494]",0
"[350, 350, 350, 241, 242, 242, 242, 241, 241, 240, 239, 240, 240, 240, 241, 241, 243, 244, 244, 245, 245, 246, 244, 244, 245, 245, 249, 253, 257, 260, 262, 262, 265, 265, 262, 262, 260, 260, 260, 256, 257, 257, 256, 256, 254, 254, 254, 250, 246, 245, 245, 246, 247, 249, 250, 252, 252, 251, 250, 250, 250, 250, 250, 248, 249, 247, 244, 245, 251, 261, 277, 302, 336, 379, 425, 473, 512, 535, 544, 544, 529, 495, 441, 372, 303, 254, 233, 236, 254, 271, 281, 283, 280, 273, 265, 258, 253, 250, 250, 251, 251, 252, 252, 253, 255, 255, 253, 252, 252, 250, 250, 251, 251, 249, 251, 251, 251, 254, 254, 254, 254, 252, 251, 251, 250, 251, 253, 253, 254, 255, 256, 255, 253, 253, 252, 252, 252, 253, 253, 254, 256, 258, 258, 260, 260, 260, 260, 260, 260, 260, 262, 265, 267, 269, 272, 272, 273, 274, 276, 275, 239, 256, 245.0, 350, 244, 296, 251.5, 544, 233, 276, 253.0, 529, 250, 258, 256.0, 276, 239, 276, 250.0, 544, 233, 286, 252.5, 544, 233, 267, 254.0, 529]",0
"[350, 350, 258, 258, 258, 258, 258, 256, 256, 256, 256, 257, 258, 258, 258, 259, 259, 259, 258, 258, 258, 258, 259, 259, 260, 260, 264, 268, 271, 274, 276, 276, 276, 275, 275, 275, 275, 274, 274, 272, 272, 270, 268, 266, 263, 263, 262, 259, 259, 257, 257, 259, 259, 260, 260, 260, 260, 260, 260, 260, 260, 261, 263, 263, 264, 262, 259, 257, 260, 270, 288, 313, 351, 394, 443, 486, 520, 540, 545, 545, 524, 487, 430, 364, 298, 254, 242, 250, 269, 285, 293, 296, 291, 283, 274, 267, 267, 267, 263, 263, 265, 266, 268, 267, 265, 263, 262, 262, 262, 262, 262, 262, 262, 264, 266, 266, 266, 264, 263, 262, 261, 262, 262, 263, 263, 264, 262, 262, 263, 264, 264, 264, 261, 261, 261, 261, 261, 262, 264, 265, 265, 264, 264, 264, 265, 265, 264, 264, 264, 266, 267, 269, 269, 269, 270, 271, 273, 274, 274, 275, 256, 267, 259.0, 350, 257, 306, 262.5, 545, 242, 286, 266.0, 524, 261, 265, 264.0, 275, 256, 287, 260.0, 545, 242, 296, 264.0, 545, 242, 275, 264.0, 524]",0
"[262, 263, 263, 263, 263, 263, 263, 259, 259, 258, 258, 261, 263, 263, 263, 262, 262, 261, 261, 261, 261, 261, 263, 265, 268, 270, 273, 273, 276, 277, 276, 276, 276, 275, 274, 274, 274, 274, 273, 273, 272, 271, 268, 266, 266, 262, 260, 259, 259, 259, 262, 262, 262, 262, 262, 260, 260, 260, 260, 259, 260, 260, 260, 260, 260, 262, 259, 258, 258, 266, 283, 307, 340, 384, 430, 475, 514, 537, 549, 549, 536, 507, 459, 395, 329, 274, 244, 243, 259, 277, 290, 295, 294, 287, 278, 271, 266, 262, 262, 262, 264, 266, 265, 264, 264, 261, 261, 262, 261, 260, 260, 262, 264, 264, 265, 265, 265, 265, 263, 262, 262, 261, 261, 261, 264, 264, 265, 265, 265, 265, 263, 263, 262, 262, 263, 265, 265, 267, 267, 267, 266, 266, 266, 264, 264, 265, 266, 268, 269, 271, 271, 274, 274, 274, 273, 273, 275, 275, 275, 278, 258, 266, 263.0, 277, 258, 305, 262.0, 549, 243, 288, 264.5, 536, 261, 267, 265.5, 278, 258, 286, 263.0, 549, 243, 297, 264.0, 549, 243, 277, 265.0, 536]",0
"[350, 350, 269, 269, 270, 273, 274, 275, 274, 274, 273, 272, 272, 270, 271, 271, 271, 271, 271, 276, 278, 279, 280, 282, 283, 286, 288, 290, 291, 292, 294, 295, 293, 291, 290, 287, 285, 284, 282, 280, 280, 280, 281, 281, 281, 277, 276, 275, 275, 274, 274, 273, 273, 273, 275, 275, 275, 279, 279, 278, 277, 278, 276, 276, 274, 274, 274, 275, 284, 299, 319, 348, 386, 428, 475, 512, 540, 557, 557, 551, 538, 510, 466, 402, 339, 288, 263, 264, 279, 295, 305, 308, 308, 303, 295, 288, 284, 280, 280, 279, 279, 280, 280, 280, 280, 280, 281, 280, 280, 281, 280, 277, 276, 276, 276, 274, 275, 278, 280, 280, 280, 280, 279, 279, 279, 279, 278, 279, 280, 281, 282, 282, 281, 281, 282, 282, 280, 280, 280, 282, 283, 283, 285, 285, 285, 286, 286, 286, 286, 287, 287, 287, 289, 291, 292, 294, 296, 298, 298, 298, 269, 283, 279.5, 350, 273, 324, 278.0, 557, 263, 303, 280.0, 538, 278, 284, 282.5, 298, 269, 304, 278.5, 557, 263, 314, 280.0, 557, 263, 294, 281.0, 538]",0
"[350, 361, 360, 360, 361, 363, 365, 365, 365, 365, 368, 368, 368, 368, 368, 368, 368, 371, 372, 374, 373, 376, 378, 382, 385, 385, 383, 383, 379, 380, 379, 379, 379, 377, 377, 377, 377, 377, 375, 372, 372, 370, 368, 366, 366, 363, 362, 360, 360, 360, 360, 360, 360, 359, 359, 360, 360, 360, 360, 358, 358, 358, 358, 358, 358, 356, 352, 349, 347, 346, 352, 369, 400, 442, 488, 534, 574, 600, 605, 588, 551, 503, 460, 432, 421, 414, 404, 392, 381, 374, 368, 364, 361, 358, 355, 355, 352, 352, 352, 352, 354, 352, 352, 351, 352, 353, 353, 353, 353, 353, 352, 353, 353, 352, 352, 352, 352, 353, 353, 353, 351, 349, 350, 351, 351, 351, 350, 349, 348, 348, 348, 350, 350, 348, 348, 348, 348, 349, 349, 349, 347, 347, 349, 349, 349, 348, 349, 349, 349, 349, 349, 352, 352, 352, 352, 353, 354, 355, 355, 357, 350, 372, 372.5, 385, 346, 393, 360.0, 605, 351, 373, 353.0, 551, 347, 350, 349.0, 357, 346, 382, 368.0, 605, 346, 383, 359.0, 605, 347, 361, 352.0, 551]",0
"[358, 357, 357, 359, 361, 361, 361, 363, 364, 364, 366, 366, 366, 364, 364, 365, 365, 370, 374, 376, 377, 379, 381, 381, 379, 379, 375, 373, 372, 372, 373, 373, 373, 372, 370, 370, 370, 370, 367, 364, 360, 359, 359, 357, 357, 357, 354, 354, 354, 357, 356, 356, 354, 355, 356, 355, 355, 355, 353, 354, 354, 355, 355, 354, 352, 350, 347, 344, 341, 340, 347, 366, 396, 432, 475, 521, 563, 590, 600, 590, 557, 512, 468, 436, 419, 411, 400, 384, 371, 366, 363, 361, 358, 356, 354, 350, 347, 347, 349, 351, 351, 349, 348, 348, 350, 350, 349, 349, 348, 348, 351, 350, 349, 349, 349, 349, 350, 350, 350, 350, 347, 347, 348, 349, 349, 349, 347, 347, 348, 348, 348, 348, 347, 346, 347, 347, 347, 347, 349, 347, 348, 348, 350, 350, 350, 350, 350, 350, 351, 350, 350, 350, 351, 353, 354, 354, 354, 354, 355, 355, 357, 368, 370.0, 381, 340, 387, 355.0, 600, 347, 371, 350.0, 557, 346, 349, 349.0, 355, 340, 378, 364.0, 600, 340, 379, 354.0, 600, 346, 360, 350.0, 557]",0
"[341, 342, 343, 344, 344, 345, 346, 350, 354, 357, 358, 358, 355, 353, 353, 353, 352, 350, 348, 348, 349, 350, 350, 350, 348, 348, 348, 345, 343, 340, 336, 336, 336, 336, 336, 336, 334, 333, 333, 333, 335, 335, 333, 333, 334, 334, 336, 336, 334, 332, 332, 332, 331, 329, 325, 321, 324, 339, 369, 408, 454, 501, 548, 575, 580, 565, 522, 474, 435, 413, 406, 400, 387, 374, 364, 358, 352, 348, 343, 337, 337, 331, 331, 331, 331, 330, 328, 328, 328, 328, 328, 328, 328, 326, 326, 326, 328, 329, 328, 328, 326, 326, 326, 326, 326, 324, 324, 326, 327, 327, 326, 326, 325, 327, 328, 328, 327, 324, 324, 325, 327, 328, 327, 325, 325, 325, 325, 328, 328, 328, 328, 326, 326, 329, 328, 328, 328, 328, 328, 331, 332, 332, 330, 331, 333, 336, 336, 336, 337, 337, 339, 341, 341, 344, 344, 345, 347, 350, 351, 351, 333, 345, 347.0, 358, 321, 387, 345.5, 580, 324, 327, 327.0, 337, 325, 333, 330.5, 351, 321, 366, 347.0, 580, 321, 357, 331.0, 580, 324, 330, 328.0, 351]",0
"[347, 347, 347, 347, 345, 347, 347, 349, 350, 351, 351, 353, 353, 354, 354, 354, 354, 355, 355, 359, 359, 359, 365, 368, 369, 368, 366, 363, 363, 362, 362, 362, 362, 361, 361, 358, 359, 359, 360, 357, 354, 351, 349, 349, 348, 345, 345, 343, 344, 346, 346, 345, 344, 342, 341, 341, 344, 345, 343, 342, 343, 343, 343, 344, 341, 339, 336, 333, 332, 334, 342, 363, 397, 441, 485, 533, 567, 572, 564, 534, 494, 456, 426, 411, 402, 392, 381, 372, 367, 362, 356, 350, 345, 342, 339, 337, 335, 336, 339, 339, 339, 337, 335, 335, 336, 336, 337, 336, 335, 334, 334, 334, 334, 336, 335, 335, 335, 336, 336, 336, 335, 334, 334, 334, 334, 334, 334, 334, 334, 336, 336, 336, 336, 333, 333, 334, 336, 336, 336, 334, 333, 334, 336, 337, 337, 337, 335, 335, 335, 335, 337, 335, 335, 337, 338, 338, 341, 341, 339, 339, 345, 356, 357.5, 369, 332, 377, 344.5, 572, 334, 354, 337.0, 494, 333, 335, 335.0, 341, 332, 366, 351.0, 572, 332, 366, 343.0, 572, 333, 345, 336.0, 494]",0
"[317, 315, 315, 315, 315, 315, 310, 306, 302, 297, 294, 289, 287, 282, 278, 276, 275, 275, 274, 273, 272, 269, 268, 267, 267, 263, 260, 260, 260, 261, 262, 262, 263, 262, 262, 262, 262, 259, 259, 257, 259, 261, 262, 262, 264, 263, 264, 264, 264, 265, 266, 266, 267, 267, 268, 267, 267, 269, 269, 271, 271, 275, 280, 293, 308, 328, 350, 371, 395, 421, 448, 476, 507, 538, 565, 588, 609, 626, 638, 644, 648, 647, 645, 640, 631, 619, 609, 600, 596, 597, 601, 602, 602, 596, 585, 571, 550, 529, 503, 473, 436, 390, 344, 298, 262, 245, 241, 241, 246, 245, 242, 237, 230, 224, 219, 214, 212, 212, 211, 210, 208, 205, 205, 201, 197, 195, 194, 194, 194, 192, 192, 192, 192, 189, 188, 185, 181, 179, 176, 175, 175, 174, 174, 175, 175, 175, 174, 172, 169, 168, 167, 165, 164, 165, 167, 168, 169, 170, 167, 165, 257, 279, 272.5, 317, 259, 355, 271.0, 644, 210, 425, 454.5, 648, 164, 180, 175.0, 208, 257, 317, 271.5, 644, 210, 390, 295.5, 648, 164, 302, 209.0, 648]",1
"[350, 319, 318, 318, 316, 313, 311, 310, 305, 303, 301, 300, 296, 295, 291, 286, 284, 281, 277, 274, 271, 271, 271, 268, 268, 267, 265, 263, 260, 259, 259, 259, 257, 257, 257, 257, 258, 259, 259, 259, 259, 259, 259, 259, 256, 256, 256, 258, 261, 263, 263, 264, 265, 265, 265, 263, 263, 263, 263, 263, 265, 270, 278, 291, 304, 319, 339, 360, 381, 404, 430, 457, 487, 518, 546, 571, 593, 611, 624, 631, 635, 638, 635, 632, 628, 621, 612, 603, 595, 591, 589, 590, 590, 593, 590, 582, 569, 553, 530, 512, 485, 457, 417, 371, 324, 277, 246, 231, 231, 233, 236, 236, 233, 228, 222, 216, 209, 204, 200, 197, 197, 197, 193, 193, 192, 190, 189, 187, 185, 182, 180, 177, 176, 176, 174, 173, 171, 171, 167, 167, 164, 162, 159, 158, 156, 156, 156, 156, 157, 157, 157, 155, 152, 150, 147, 144, 144, 144, 144, 147, 257, 282, 272.5, 350, 256, 347, 265.0, 631, 197, 433, 498.5, 638, 144, 167, 165.5, 197, 256, 314, 271.0, 631, 197, 390, 311.5, 638, 144, 300, 197.0, 638]",1
"[291, 288, 288, 284, 281, 280, 280, 278, 278, 275, 273, 270, 268, 267, 267, 263, 263, 263, 261, 261, 261, 261, 262, 262, 262, 258, 257, 257, 254, 256, 256, 257, 260, 260, 260, 260, 261, 261, 261, 261, 261, 261, 260, 260, 260, 263, 263, 263, 266, 267, 267, 264, 264, 262, 262, 261, 261, 261, 264, 264, 267, 274, 282, 298, 313, 330, 350, 373, 397, 426, 453, 480, 507, 535, 561, 584, 603, 618, 630, 637, 641, 644, 643, 639, 632, 623, 613, 603, 595, 592, 594, 597, 598, 596, 590, 577, 560, 538, 513, 482, 446, 403, 354, 306, 266, 240, 230, 230, 233, 235, 235, 232, 225, 219, 212, 206, 202, 199, 199, 197, 198, 197, 195, 193, 190, 187, 187, 183, 178, 178, 178, 180, 180, 180, 177, 173, 172, 170, 167, 165, 163, 160, 159, 159, 159, 157, 155, 153, 149, 145, 143, 141, 141, 137, 136, 136, 136, 136, 137, 136, 254, 266, 262.0, 291, 260, 354, 267.0, 637, 197, 423, 464.0, 644, 136, 164, 164.0, 198, 254, 310, 264.0, 637, 197, 388, 302.0, 644, 136, 293, 197.5, 644]",1
"[310, 310, 308, 305, 302, 300, 297, 294, 294, 292, 292, 292, 286, 282, 279, 277, 277, 274, 271, 271, 269, 270, 271, 271, 270, 268, 267, 267, 267, 261, 260, 260, 260, 262, 264, 264, 264, 264, 268, 266, 266, 267, 266, 266, 266, 266, 266, 270, 271, 271, 270, 270, 269, 268, 268, 265, 264, 266, 271, 279, 291, 305, 321, 338, 355, 374, 397, 421, 447, 475, 506, 536, 563, 590, 610, 624, 637, 644, 646, 647, 645, 641, 636, 625, 614, 604, 598, 596, 595, 594, 589, 579, 561, 542, 521, 496, 471, 438, 395, 350, 305, 266, 242, 230, 230, 234, 234, 233, 230, 226, 222, 217, 211, 208, 206, 206, 206, 198, 196, 195, 195, 195, 194, 193, 193, 190, 188, 186, 184, 181, 179, 179, 179, 178, 179, 180, 180, 179, 179, 178, 176, 175, 172, 169, 169, 171, 175, 179, 181, 179, 178, 175, 169, 161, 156, 153, 150, 146, 142, 137, 260, 278, 271.0, 310, 264, 377, 285.0, 647, 195, 389, 327.5, 645, 137, 175, 179.0, 195, 260, 327, 271.0, 647, 195, 383, 298.0, 647, 137, 282, 195.0, 645]",1
"[308, 308, 304, 301, 296, 293, 289, 289, 283, 278, 275, 275, 271, 271, 266, 264, 262, 259, 256, 253, 251, 251, 251, 251, 254, 254, 255, 254, 254, 252, 252, 249, 249, 248, 248, 251, 253, 253, 255, 255, 253, 253, 254, 252, 253, 253, 253, 255, 257, 257, 260, 260, 260, 260, 259, 258, 258, 257, 257, 257, 260, 266, 275, 286, 300, 318, 336, 354, 375, 400, 426, 454, 483, 513, 543, 568, 589, 606, 618, 626, 630, 634, 632, 630, 627, 620, 611, 604, 597, 597, 597, 591, 593, 594, 592, 583, 571, 553, 535, 512, 488, 457, 415, 367, 318, 274, 245, 230, 228, 230, 230, 230, 229, 224, 217, 210, 205, 200, 198, 198, 195, 193, 192, 190, 190, 191, 188, 185, 184, 181, 176, 175, 173, 173, 173, 173, 172, 173, 173, 172, 172, 172, 172, 170, 168, 167, 167, 167, 169, 170, 170, 170, 172, 170, 168, 167, 162, 156, 152, 149, 248, 266, 255.0, 308, 252, 343, 260.0, 626, 198, 432, 500.0, 634, 149, 173, 172.0, 195, 248, 304, 260.0, 626, 198, 387, 309.0, 634, 149, 303, 196.5, 634]",1
"[304, 302, 301, 301, 301, 296, 292, 290, 286, 283, 278, 275, 269, 267, 267, 267, 262, 262, 260, 258, 258, 257, 254, 251, 250, 249, 249, 249, 249, 250, 250, 252, 252, 251, 250, 249, 249, 249, 249, 249, 249, 251, 251, 253, 253, 254, 254, 254, 251, 251, 254, 254, 254, 257, 258, 258, 258, 258, 258, 258, 261, 266, 275, 289, 308, 328, 348, 373, 396, 419, 445, 472, 500, 527, 555, 580, 598, 615, 628, 636, 638, 640, 639, 635, 629, 621, 611, 599, 592, 592, 591, 593, 597, 598, 595, 585, 570, 550, 530, 510, 485, 456, 420, 375, 328, 288, 257, 237, 237, 237, 231, 231, 229, 226, 220, 214, 210, 206, 206, 202, 200, 198, 195, 193, 193, 191, 189, 189, 189, 185, 185, 184, 182, 180, 178, 175, 173, 173, 170, 168, 167, 166, 164, 164, 164, 162, 160, 160, 158, 155, 154, 153, 153, 153, 153, 153, 153, 155, 154, 154, 249, 265, 258.0, 304, 249, 347, 259.5, 636, 202, 435, 497.5, 640, 153, 171, 167.5, 200, 249, 306, 258.0, 636, 202, 391, 318.0, 640, 153, 303, 201.0, 640]",1
"[304, 301, 300, 298, 295, 293, 291, 285, 281, 277, 273, 270, 269, 266, 265, 265, 263, 262, 259, 259, 256, 256, 252, 252, 252, 252, 252, 253, 253, 254, 254, 252, 252, 251, 250, 250, 249, 251, 252, 254, 254, 256, 258, 257, 257, 255, 255, 255, 255, 255, 257, 257, 258, 260, 260, 261, 261, 261, 261, 264, 271, 282, 297, 315, 335, 356, 376, 397, 421, 444, 468, 493, 521, 548, 572, 595, 615, 631, 643, 643, 648, 648, 644, 637, 630, 620, 607, 599, 595, 596, 599, 602, 601, 597, 587, 571, 550, 528, 503, 473, 438, 395, 349, 306, 270, 247, 235, 233, 235, 236, 235, 232, 226, 221, 215, 210, 207, 207, 203, 201, 197, 195, 193, 193, 189, 188, 186, 186, 186, 187, 184, 182, 179, 179, 175, 174, 172, 172, 170, 170, 169, 169, 167, 165, 161, 159, 155, 154, 154, 154, 154, 155, 155, 155, 155, 152, 150, 147, 146, 145, 249, 265, 257.5, 304, 254, 359, 267.5, 643, 201, 423, 455.5, 648, 145, 169, 169.5, 197, 249, 312, 261.0, 643, 201, 391, 310.5, 648, 145, 296, 199.0, 648]",1
"[350, 320, 319, 316, 315, 313, 308, 305, 301, 297, 293, 290, 288, 286, 283, 281, 277, 274, 273, 271, 269, 269, 267, 267, 265, 265, 265, 265, 265, 264, 264, 264, 263, 262, 262, 261, 262, 263, 264, 265, 265, 265, 264, 264, 264, 264, 264, 264, 266, 268, 268, 268, 272, 272, 272, 272, 268, 269, 270, 270, 275, 283, 294, 312, 331, 350, 369, 392, 414, 441, 467, 493, 524, 554, 581, 603, 622, 635, 645, 650, 654, 654, 651, 648, 642, 631, 623, 615, 608, 607, 608, 610, 610, 609, 603, 591, 574, 554, 533, 509, 480, 445, 402, 354, 309, 271, 249, 242, 242, 242, 244, 244, 238, 233, 228, 223, 217, 213, 211, 207, 207, 207, 205, 202, 201, 201, 201, 201, 197, 194, 194, 191, 189, 189, 187, 185, 185, 183, 183, 183, 182, 180, 178, 175, 174, 173, 174, 173, 173, 172, 172, 173, 173, 172, 172, 173, 173, 170, 167, 163, 261, 281, 270.0, 350, 264, 364, 273.5, 650, 207, 440, 494.5, 654, 163, 183, 182.5, 207, 261, 322, 272.0, 650, 207, 402, 321.5, 654, 163, 312, 207.0, 654]",1
"[350, 258, 261, 263, 265, 267, 269, 268, 270, 272, 273, 275, 281, 287, 288, 295, 299, 299, 298, 296, 293, 292, 292, 292, 292, 291, 290, 287, 281, 276, 271, 264, 257, 253, 249, 249, 249, 250, 251, 252, 252, 251, 251, 250, 250, 250, 246, 246, 248, 247, 247, 249, 249, 250, 249, 248, 248, 248, 248, 247, 247, 247, 247, 248, 243, 242, 242, 247, 256, 271, 295, 330, 371, 414, 462, 501, 529, 542, 542, 535, 513, 473, 414, 347, 284, 240, 231, 241, 260, 276, 284, 286, 281, 273, 263, 255, 250, 248, 248, 249, 251, 251, 252, 252, 252, 252, 252, 249, 249, 247, 246, 247, 248, 248, 250, 251, 251, 251, 251, 249, 249, 248, 248, 248, 248, 249, 251, 252, 252, 250, 250, 250, 250, 250, 250, 250, 251, 251, 253, 255, 255, 255, 256, 256, 255, 255, 254, 255, 258, 260, 262, 264, 266, 266, 266, 267, 266, 266, 268, 269, 249, 276, 274.0, 350, 242, 299, 249.0, 542, 231, 272, 251.0, 513, 248, 255, 254.5, 269, 242, 288, 263.5, 542, 231, 286, 250.0, 542, 231, 264, 252.0, 513]",0
"[263, 262, 262, 262, 260, 260, 260, 260, 260, 263, 266, 269, 269, 273, 273, 273, 275, 275, 277, 279, 280, 283, 288, 295, 301, 306, 308, 308, 305, 305, 305, 305, 304, 304, 304, 301, 298, 292, 286, 278, 270, 263, 263, 257, 257, 258, 259, 259, 259, 261, 261, 259, 258, 258, 256, 255, 254, 256, 258, 259, 260, 260, 260, 260, 258, 254, 250, 246, 247, 256, 274, 300, 336, 379, 425, 471, 510, 534, 545, 546, 536, 511, 466, 408, 346, 284, 249, 244, 257, 276, 287, 289, 287, 282, 274, 266, 266, 259, 259, 259, 259, 259, 259, 257, 255, 255, 255, 254, 254, 253, 253, 253, 256, 256, 254, 253, 253, 250, 250, 251, 253, 253, 253, 254, 254, 254, 254, 254, 254, 253, 252, 252, 252, 252, 253, 253, 254, 253, 253, 251, 250, 252, 251, 251, 251, 253, 255, 255, 258, 257, 257, 257, 257, 257, 257, 258, 258, 260, 260, 265, 260, 282, 278.5, 308, 246, 301, 259.0, 546, 244, 284, 258.0, 536, 250, 254, 254.0, 265, 246, 291, 267.5, 546, 244, 293, 259.0, 546, 244, 269, 255.0, 536]",0
"[257, 259, 261, 263, 266, 269, 269, 272, 272, 274, 274, 275, 277, 280, 284, 289, 294, 300, 302, 302, 300, 298, 296, 296, 296, 294, 293, 293, 290, 287, 282, 275, 268, 261, 255, 253, 252, 252, 252, 253, 255, 255, 255, 255, 253, 251, 251, 251, 251, 247, 248, 250, 250, 250, 254, 255, 255, 254, 253, 252, 252, 252, 252, 249, 249, 249, 245, 248, 255, 268, 291, 325, 368, 417, 465, 505, 532, 543, 542, 530, 501, 451, 384, 317, 263, 237, 238, 255, 272, 283, 288, 288, 280, 271, 263, 256, 256, 252, 252, 252, 252, 252, 252, 253, 253, 253, 252, 252, 252, 251, 250, 250, 249, 249, 251, 252, 252, 252, 251, 252, 250, 250, 250, 250, 248, 250, 250, 250, 250, 252, 252, 252, 250, 249, 249, 249, 250, 250, 251, 251, 254, 254, 254, 254, 253, 253, 255, 255, 255, 255, 256, 259, 261, 261, 263, 264, 265, 265, 267, 267, 252, 277, 275.0, 302, 245, 302, 253.5, 543, 237, 272, 252.0, 501, 248, 254, 252.5, 267, 245, 289, 264.5, 543, 237, 287, 252.5, 543, 237, 263, 252.0, 501]",0
"[239, 240, 240, 241, 241, 244, 243, 243, 244, 244, 244, 244, 249, 252, 252, 257, 260, 262, 262, 266, 267, 268, 271, 277, 282, 286, 288, 289, 288, 289, 288, 288, 288, 286, 284, 281, 276, 269, 261, 256, 250, 246, 245, 244, 242, 240, 239, 239, 239, 239, 239, 239, 239, 241, 243, 242, 242, 241, 241, 241, 241, 238, 238, 236, 236, 233, 233, 233, 234, 244, 261, 287, 320, 363, 408, 453, 492, 518, 531, 533, 526, 502, 459, 399, 336, 273, 232, 224, 235, 253, 267, 275, 275, 270, 262, 253, 245, 241, 239, 238, 238, 240, 240, 240, 240, 241, 240, 239, 237, 235, 236, 233, 233, 233, 236, 236, 236, 236, 236, 236, 236, 236, 234, 234, 233, 234, 236, 237, 237, 238, 238, 238, 238, 236, 234, 234, 233, 234, 234, 237, 237, 237, 239, 239, 239, 239, 239, 238, 238, 239, 239, 242, 244, 245, 245, 244, 244, 245, 245, 248, 239, 263, 262.0, 289, 233, 284, 241.0, 533, 224, 268, 240.0, 526, 233, 238, 238.0, 248, 233, 273, 245.5, 533, 224, 276, 240.5, 533, 224, 253, 238.0, 526]",0
"[255, 256, 256, 255, 255, 253, 253, 253, 251, 252, 255, 260, 262, 267, 267, 270, 270, 270, 271, 272, 272, 277, 282, 289, 294, 298, 300, 298, 297, 295, 293, 293, 293, 291, 289, 285, 279, 274, 269, 261, 254, 254, 247, 247, 245, 245, 245, 248, 248, 248, 251, 252, 251, 247, 247, 247, 247, 247, 247, 246, 248, 248, 250, 250, 247, 243, 240, 240, 246, 258, 280, 309, 351, 395, 442, 484, 517, 534, 538, 537, 525, 500, 460, 402, 336, 279, 242, 237, 250, 268, 281, 286, 283, 276, 267, 260, 253, 250, 250, 250, 249, 249, 249, 248, 247, 245, 245, 245, 245, 242, 243, 244, 244, 244, 244, 244, 243, 243, 242, 242, 241, 241, 241, 241, 241, 244, 244, 244, 244, 244, 241, 241, 242, 241, 241, 243, 245, 245, 247, 247, 247, 245, 244, 243, 243, 243, 243, 245, 247, 249, 251, 251, 252, 252, 250, 250, 250, 251, 253, 254, 251, 273, 270.5, 300, 240, 295, 248.0, 538, 237, 276, 249.0, 525, 241, 245, 244.0, 254, 240, 284, 257.0, 538, 237, 285, 248.0, 538, 237, 260, 245.0, 525]",0
"[246, 246, 247, 248, 248, 248, 249, 249, 249, 250, 251, 253, 256, 260, 263, 265, 267, 269, 267, 267, 270, 272, 275, 279, 283, 288, 293, 293, 293, 294, 293, 293, 293, 293, 290, 286, 286, 282, 277, 270, 264, 260, 254, 249, 249, 247, 247, 246, 246, 247, 247, 248, 248, 245, 245, 246, 245, 245, 245, 246, 246, 246, 246, 247, 246, 244, 242, 241, 245, 257, 278, 306, 344, 391, 441, 485, 517, 535, 540, 535, 514, 479, 426, 363, 298, 252, 235, 240, 259, 273, 282, 282, 279, 270, 260, 253, 248, 244, 242, 244, 246, 246, 248, 246, 246, 244, 244, 242, 239, 239, 239, 241, 241, 242, 243, 243, 245, 243, 241, 241, 239, 238, 238, 240, 241, 241, 241, 241, 243, 243, 243, 243, 240, 240, 240, 240, 240, 240, 243, 245, 246, 246, 244, 244, 244, 245, 245, 245, 245, 245, 246, 249, 252, 253, 253, 254, 254, 254, 254, 256, 246, 270, 269.5, 294, 241, 295, 247.0, 540, 235, 270, 245.5, 514, 238, 244, 244.0, 256, 241, 282, 256.5, 540, 235, 282, 246.0, 540, 235, 257, 244.0, 514]",0
"[249, 249, 252, 255, 257, 259, 260, 262, 265, 266, 267, 267, 267, 273, 273, 276, 281, 288, 294, 298, 299, 298, 296, 293, 291, 290, 290, 290, 289, 288, 285, 279, 272, 265, 257, 251, 247, 246, 245, 245, 247, 247, 247, 248, 248, 247, 246, 246, 246, 246, 241, 241, 241, 243, 245, 245, 247, 247, 247, 246, 246, 244, 244, 242, 239, 235, 234, 238, 250, 264, 287, 316, 354, 396, 440, 479, 509, 525, 529, 529, 515, 490, 444, 383, 322, 260, 228, 228, 245, 262, 274, 277, 275, 269, 262, 255, 249, 245, 245, 245, 244, 244, 244, 244, 244, 244, 244, 244, 244, 244, 243, 242, 241, 242, 242, 245, 245, 246, 248, 248, 247, 246, 246, 246, 246, 244, 244, 246, 247, 247, 247, 247, 247, 246, 245, 245, 245, 245, 245, 246, 246, 250, 250, 252, 252, 250, 252, 252, 252, 252, 252, 254, 257, 258, 260, 262, 263, 263, 264, 264, 245, 271, 269.5, 299, 234, 292, 247.0, 529, 228, 271, 245.0, 515, 244, 250, 247.0, 264, 234, 282, 258.0, 529, 228, 282, 246.0, 529, 228, 260, 247.0, 515]",0
"[249, 249, 249, 247, 247, 249, 252, 256, 259, 262, 264, 264, 268, 268, 268, 272, 276, 282, 288, 291, 291, 291, 291, 289, 288, 287, 285, 284, 282, 278, 272, 266, 259, 255, 255, 249, 247, 245, 242, 242, 244, 243, 241, 241, 241, 243, 245, 244, 244, 243, 242, 241, 241, 241, 241, 241, 241, 243, 245, 246, 246, 246, 244, 242, 240, 238, 234, 232, 235, 245, 261, 287, 325, 373, 421, 468, 504, 524, 532, 532, 518, 488, 439, 372, 306, 252, 225, 227, 243, 259, 270, 272, 271, 265, 258, 252, 247, 247, 243, 243, 241, 241, 240, 240, 238, 239, 240, 242, 243, 243, 243, 243, 241, 241, 238, 240, 238, 238, 240, 240, 240, 243, 243, 242, 241, 241, 241, 240, 239, 238, 238, 241, 243, 245, 245, 244, 244, 244, 243, 243, 243, 242, 243, 246, 249, 249, 251, 251, 250, 250, 250, 250, 250, 250, 254, 254, 256, 257, 261, 261, 242, 266, 265.0, 291, 232, 287, 243.5, 532, 225, 267, 243.0, 518, 238, 246, 244.0, 261, 232, 276, 249.0, 532, 225, 277, 243.0, 532, 225, 257, 243.0, 518]",0
"[248, 249, 250, 250, 250, 253, 254, 254, 253, 252, 253, 253, 256, 262, 262, 267, 267, 270, 270, 272, 273, 276, 279, 285, 290, 294, 297, 297, 297, 297, 297, 297, 298, 297, 293, 289, 282, 279, 272, 267, 258, 255, 255, 255, 250, 250, 251, 251, 248, 246, 246, 247, 247, 247, 247, 251, 251, 251, 250, 250, 247, 247, 246, 244, 243, 242, 240, 240, 244, 254, 273, 301, 337, 380, 425, 471, 509, 531, 539, 536, 519, 482, 426, 358, 294, 249, 233, 240, 259, 275, 283, 283, 278, 270, 260, 254, 249, 246, 246, 246, 248, 248, 248, 249, 250, 250, 248, 248, 247, 245, 243, 241, 241, 243, 245, 245, 246, 246, 246, 245, 245, 245, 245, 243, 243, 243, 244, 244, 246, 247, 246, 246, 245, 245, 244, 243, 243, 243, 245, 245, 247, 247, 248, 248, 248, 248, 246, 245, 246, 246, 247, 249, 252, 254, 254, 255, 255, 255, 255, 255, 248, 272, 271.0, 298, 240, 293, 250.5, 539, 233, 271, 248.0, 519, 243, 247, 246.0, 255, 240, 283, 255.0, 539, 233, 282, 249.0, 539, 233, 259, 247.0, 519]",0
"[249, 247, 246, 248, 248, 250, 252, 258, 260, 263, 266, 267, 267, 268, 268, 269, 272, 278, 282, 288, 293, 296, 296, 295, 295, 295, 291, 291, 287, 285, 282, 279, 273, 267, 260, 253, 253, 249, 246, 245, 245, 245, 244, 244, 245, 246, 247, 247, 246, 246, 244, 244, 242, 242, 241, 241, 240, 241, 242, 245, 246, 244, 243, 242, 240, 237, 233, 233, 239, 257, 282, 317, 360, 408, 457, 498, 525, 535, 536, 528, 501, 458, 399, 330, 271, 234, 228, 240, 256, 269, 273, 271, 266, 259, 251, 246, 244, 244, 244, 244, 244, 241, 240, 240, 240, 239, 240, 240, 240, 243, 243, 242, 242, 240, 239, 239, 239, 238, 238, 241, 241, 241, 242, 242, 243, 241, 241, 241, 241, 241, 241, 242, 243, 243, 245, 245, 245, 245, 243, 243, 243, 245, 245, 246, 247, 247, 251, 253, 254, 254, 254, 254, 255, 255, 255, 257, 259, 261, 264, 266, 245, 269, 267.5, 296, 233, 293, 245.0, 536, 228, 263, 242.5, 501, 241, 247, 245.0, 266, 233, 281, 253.0, 536, 228, 278, 244.0, 536, 228, 255, 244.0, 501]",0
"[333, 333, 333, 333, 333, 333, 329, 327, 329, 339, 345, 346, 339, 330, 328, 332, 337, 337, 332, 332, 332, 326, 326, 329, 330, 332, 335, 336, 336, 339, 341, 341, 344, 350, 355, 359, 360, 363, 371, 376, 377, 376, 371, 364, 359, 358, 358, 360, 357, 350, 342, 337, 336, 334, 333, 331, 331, 329, 330, 331, 331, 334, 334, 334, 334, 336, 337, 335, 326, 320, 323, 338, 368, 418, 479, 540, 588, 615, 626, 627, 612, 581, 526, 452, 374, 311, 292, 302, 312, 312, 313, 316, 316, 318, 320, 323, 325, 324, 321, 321, 321, 320, 319, 321, 324, 323, 320, 319, 321, 326, 329, 326, 324, 325, 329, 328, 325, 322, 317, 317, 320, 326, 330, 330, 328, 323, 322, 323, 328, 332, 334, 334, 331, 331, 331, 332, 331, 331, 334, 334, 338, 343, 345, 347, 349, 349, 349, 349, 349, 346, 345, 347, 352, 355, 357, 359, 359, 364, 369, 372, 326, 339, 334.0, 376, 320, 380, 337.5, 627, 292, 343, 321.0, 612, 320, 340, 336.0, 372, 320, 359, 336.0, 627, 292, 361, 330.5, 627, 292, 341, 328.5, 612]",0
"[335, 334, 335, 337, 337, 336, 333, 330, 327, 325, 325, 325, 333, 333, 332, 328, 327, 329, 332, 333, 330, 327, 327, 333, 338, 344, 348, 348, 345, 343, 342, 342, 342, 343, 348, 356, 369, 379, 381, 379, 375, 370, 363, 355, 355, 356, 351, 347, 346, 348, 347, 343, 336, 334, 334, 335, 334, 332, 327, 323, 320, 320, 324, 323, 323, 323, 324, 323, 323, 324, 329, 342, 370, 416, 477, 536, 580, 606, 617, 618, 607, 584, 532, 460, 384, 308, 279, 290, 309, 315, 312, 308, 310, 316, 320, 321, 319, 314, 313, 315, 315, 316, 316, 316, 318, 318, 320, 319, 317, 315, 315, 315, 315, 315, 315, 317, 319, 318, 317, 317, 318, 316, 313, 313, 317, 317, 315, 315, 319, 321, 322, 323, 324, 324, 324, 325, 328, 328, 330, 330, 328, 330, 332, 332, 336, 336, 336, 337, 342, 346, 347, 346, 344, 343, 345, 348, 348, 351, 354, 356, 325, 339, 335.0, 381, 320, 375, 342.5, 618, 279, 338, 316.0, 607, 313, 331, 330.0, 356, 320, 357, 336.0, 618, 279, 357, 323.0, 618, 279, 335, 319.0, 607]",0
"[350, 377, 380, 383, 386, 389, 389, 392, 393, 394, 393, 391, 391, 395, 398, 398, 398, 398, 398, 398, 398, 392, 392, 389, 387, 389, 389, 384, 379, 371, 367, 366, 368, 369, 367, 363, 359, 355, 354, 354, 353, 349, 347, 348, 350, 350, 352, 350, 346, 346, 343, 345, 348, 349, 349, 349, 349, 348, 347, 346, 349, 355, 361, 370, 380, 387, 394, 404, 417, 436, 455, 475, 490, 508, 523, 541, 559, 577, 588, 591, 589, 582, 575, 564, 540, 505, 469, 444, 433, 430, 428, 421, 413, 406, 396, 374, 342, 312, 292, 283, 283, 279, 277, 274, 270, 270, 274, 279, 284, 289, 292, 292, 292, 296, 299, 301, 301, 305, 308, 311, 314, 314, 310, 307, 307, 312, 319, 322, 322, 319, 318, 319, 324, 327, 327, 326, 324, 324, 326, 329, 329, 332, 333, 336, 339, 343, 345, 345, 345, 344, 345, 345, 345, 343, 343, 343, 345, 349, 355, 356, 350, 382, 389.0, 398, 343, 403, 352.5, 591, 270, 364, 306.5, 589, 307, 331, 329.0, 356, 343, 392, 381.5, 591, 270, 383, 349.5, 591, 270, 347, 326.5, 589]",1
"[350, 369, 365, 359, 358, 356, 356, 356, 356, 351, 349, 349, 351, 351, 351, 351, 349, 349, 350, 350, 350, 347, 346, 346, 346, 346, 346, 349, 349, 349, 350, 350, 349, 349, 350, 353, 353, 353, 353, 353, 359, 362, 363, 365, 365, 363, 360, 359, 358, 356, 356, 352, 351, 353, 358, 363, 366, 368, 369, 369, 372, 378, 384, 393, 404, 419, 436, 454, 472, 489, 510, 536, 562, 587, 604, 614, 620, 626, 633, 642, 641, 635, 618, 590, 550, 491, 435, 405, 393, 382, 364, 332, 307, 294, 286, 278, 272, 272, 269, 269, 269, 272, 278, 287, 292, 295, 295, 295, 295, 296, 297, 297, 295, 292, 292, 288, 289, 289, 291, 291, 291, 291, 291, 293, 293, 291, 289, 289, 291, 291, 294, 294, 294, 291, 292, 295, 299, 302, 303, 303, 305, 308, 311, 314, 314, 317, 319, 322, 327, 332, 334, 334, 334, 338, 340, 340, 344, 344, 344, 348, 346, 351, 350.0, 369, 351, 433, 370.5, 642, 269, 346, 295.0, 641, 289, 311, 304.0, 348, 346, 392, 356.0, 642, 269, 390, 362.5, 642, 269, 329, 295.5, 641]",1
"[294, 294, 294, 291, 292, 295, 299, 302, 303, 303, 305, 308, 311, 314, 314, 317, 319, 322, 327, 332, 334, 334, 334, 338, 340, 340, 344, 344, 344, 348, 351, 351, 351, 348, 348, 348, 348, 349, 348, 345, 342, 342, 342, 345, 346, 346, 343, 343, 344, 349, 352, 350, 347, 347, 347, 351, 355, 360, 366, 371, 381, 392, 404, 415, 424, 435, 446, 460, 474, 492, 511, 532, 556, 582, 609, 630, 646, 653, 656, 661, 666, 669, 661, 638, 601, 555, 497, 435, 373, 326, 301, 290, 288, 289, 288, 289, 291, 295, 300, 303, 303, 296, 295, 297, 299, 299, 297, 292, 287, 287, 287, 284, 282, 279, 275, 274, 275, 276, 276, 276, 273, 273, 273, 270, 268, 265, 265, 266, 266, 268, 273, 277, 277, 277, 277, 280, 284, 287, 288, 288, 289, 293, 299, 303, 304, 306, 307, 311, 316, 320, 323, 326, 328, 331, 335, 338, 339, 339, 337, 338, 291, 325, 333.0, 351, 342, 433, 376.0, 661, 274, 352, 295.0, 669, 265, 296, 288.5, 339, 291, 379, 347.0, 661, 274, 392, 346.5, 669, 265, 324, 292.5, 669]",1
"[335, 332, 332, 337, 341, 343, 343, 341, 343, 346, 346, 346, 350, 351, 351, 353, 354, 354, 355, 354, 350, 341, 330, 327, 330, 334, 336, 336, 337, 338, 337, 337, 337, 335, 335, 337, 335, 333, 333, 335, 340, 343, 343, 343, 342, 340, 337, 333, 328, 328, 331, 337, 337, 336, 334, 335, 337, 338, 339, 339, 336, 335, 335, 336, 339, 338, 336, 336, 334, 336, 343, 355, 371, 390, 413, 436, 459, 470, 475, 473, 461, 441, 421, 397, 364, 326, 289, 261, 258, 267, 279, 288, 297, 310, 324, 333, 335, 334, 335, 337, 339, 339, 337, 337, 338, 339, 339, 341, 341, 342, 341, 343, 347, 352, 354, 355, 355, 354, 357, 361, 361, 361, 361, 361, 364, 367, 371, 371, 371, 371, 372, 376, 380, 383, 383, 382, 383, 387, 391, 393, 394, 394, 401, 410, 411, 408, 398, 393, 392, 392, 392, 391, 387, 384, 382, 382, 382, 380, 378, 376, 327, 340, 337.0, 355, 328, 357, 338.0, 475, 258, 339, 339.0, 461, 361, 382, 382.5, 411, 327, 348, 337.5, 475, 258, 348, 339.0, 475, 258, 361, 364.0, 461]",0
"[357, 343, 331, 328, 330, 334, 338, 342, 347, 349, 348, 348, 347, 347, 347, 347, 346, 346, 345, 344, 344, 346, 345, 341, 338, 334, 333, 333, 333, 336, 336, 339, 339, 343, 341, 339, 337, 337, 336, 335, 334, 335, 335, 335, 332, 335, 339, 339, 337, 337, 332, 332, 332, 333, 333, 335, 336, 336, 337, 339, 340, 342, 339, 335, 334, 335, 335, 335, 334, 337, 346, 363, 381, 397, 412, 427, 443, 456, 463, 462, 455, 436, 418, 396, 365, 325, 287, 258, 255, 268, 280, 287, 295, 304, 315, 324, 330, 332, 332, 335, 338, 340, 344, 346, 347, 345, 345, 342, 342, 343, 347, 347, 350, 348, 344, 344, 344, 348, 353, 358, 361, 363, 363, 361, 360, 361, 365, 370, 373, 373, 372, 373, 377, 384, 387, 387, 388, 388, 390, 393, 393, 393, 393, 393, 390, 393, 393, 395, 395, 394, 394, 393, 389, 386, 382, 376, 368, 364, 364, 366, 328, 340, 341.0, 357, 332, 355, 336.5, 463, 255, 337, 343.5, 455, 360, 380, 385.0, 395, 328, 348, 338.5, 463, 255, 346, 338.5, 463, 255, 358, 363.0, 455]",0
"[351, 350, 348, 346, 349, 354, 358, 359, 354, 345, 339, 338, 341, 342, 342, 342, 342, 341, 340, 340, 340, 340, 339, 339, 339, 333, 331, 328, 325, 325, 326, 329, 332, 332, 335, 335, 337, 336, 336, 336, 336, 336, 336, 336, 336, 336, 335, 335, 332, 332, 335, 338, 339, 336, 332, 330, 331, 334, 336, 336, 333, 333, 333, 335, 338, 338, 334, 331, 331, 334, 345, 358, 373, 387, 406, 430, 450, 460, 461, 456, 440, 420, 399, 368, 328, 295, 268, 258, 261, 272, 283, 292, 300, 308, 316, 323, 329, 332, 334, 335, 334, 335, 337, 337, 338, 340, 342, 343, 341, 339, 339, 342, 346, 348, 348, 347, 346, 347, 351, 354, 355, 349, 349, 350, 354, 357, 361, 362, 362, 363, 369, 372, 372, 372, 374, 374, 378, 378, 383, 383, 383, 383, 383, 387, 391, 393, 393, 391, 391, 391, 391, 391, 393, 394, 394, 391, 388, 387, 387, 384, 325, 339, 339.5, 359, 330, 354, 336.0, 461, 258, 332, 337.5, 440, 349, 377, 383.0, 394, 325, 346, 336.5, 461, 258, 343, 336.0, 461, 258, 355, 354.5, 440]",0
"[345, 346, 346, 344, 344, 345, 347, 346, 343, 343, 343, 345, 345, 341, 338, 335, 334, 334, 334, 340, 343, 346, 349, 348, 344, 336, 325, 321, 323, 329, 330, 329, 329, 329, 331, 331, 335, 337, 337, 335, 335, 336, 336, 338, 336, 332, 331, 329, 330, 332, 333, 333, 331, 331, 334, 337, 336, 336, 336, 336, 334, 334, 333, 333, 333, 333, 336, 338, 339, 339, 344, 360, 378, 392, 402, 412, 428, 447, 461, 466, 462, 446, 423, 389, 346, 302, 269, 256, 260, 273, 287, 296, 306, 315, 323, 327, 332, 334, 338, 339, 338, 338, 336, 337, 335, 335, 337, 339, 340, 344, 348, 351, 350, 347, 345, 346, 351, 353, 353, 352, 351, 352, 356, 361, 364, 366, 365, 363, 362, 366, 372, 375, 375, 377, 377, 378, 381, 383, 386, 388, 388, 388, 393, 391, 388, 388, 388, 389, 391, 389, 386, 386, 389, 390, 390, 387, 383, 380, 379, 378, 321, 338, 339.0, 349, 329, 353, 336.0, 466, 256, 337, 338.0, 462, 351, 378, 382.0, 393, 321, 345, 336.0, 466, 256, 345, 336.0, 466, 256, 357, 361.5, 462]",0
"[343, 343, 344, 345, 346, 347, 345, 342, 342, 344, 346, 346, 344, 344, 344, 341, 340, 336, 331, 330, 332, 335, 339, 338, 333, 330, 330, 330, 332, 333, 332, 332, 330, 331, 333, 335, 335, 333, 331, 333, 336, 339, 340, 336, 329, 328, 329, 331, 329, 327, 327, 328, 331, 333, 333, 333, 329, 330, 333, 336, 336, 335, 334, 332, 331, 331, 330, 328, 327, 333, 345, 363, 382, 399, 415, 434, 454, 469, 476, 476, 463, 442, 424, 403, 374, 336, 297, 267, 253, 256, 272, 286, 294, 299, 305, 314, 322, 327, 327, 327, 334, 338, 338, 342, 342, 341, 337, 335, 335, 336, 335, 333, 331, 333, 340, 343, 345, 345, 347, 347, 349, 351, 355, 355, 357, 357, 359, 361, 361, 361, 361, 360, 363, 366, 366, 372, 376, 379, 381, 383, 383, 385, 384, 383, 384, 390, 390, 392, 389, 389, 389, 390, 390, 394, 394, 396, 395, 392, 387, 385, 330, 337, 335.5, 347, 327, 354, 333.0, 476, 253, 334, 335.0, 463, 349, 376, 383.0, 396, 327, 345, 334.5, 476, 253, 344, 334.0, 476, 253, 355, 357.0, 463]",0
"[348, 348, 350, 354, 356, 356, 354, 354, 354, 352, 352, 352, 352, 355, 359, 363, 367, 368, 367, 365, 365, 368, 373, 376, 379, 383, 385, 387, 390, 389, 389, 385, 382, 379, 379, 377, 372, 366, 359, 353, 353, 353, 351, 351, 348, 348, 346, 345, 344, 344, 341, 340, 342, 345, 345, 343, 340, 341, 342, 347, 349, 349, 347, 346, 347, 348, 348, 347, 350, 357, 369, 383, 400, 422, 448, 477, 506, 530, 540, 538, 512, 467, 413, 365, 330, 313, 314, 320, 322, 320, 317, 314, 310, 306, 304, 305, 308, 308, 307, 307, 303, 303, 307, 311, 311, 311, 320, 327, 337, 349, 357, 362, 364, 365, 368, 370, 374, 374, 376, 382, 385, 386, 385, 380, 376, 376, 379, 383, 387, 387, 386, 386, 386, 388, 388, 388, 388, 392, 395, 398, 400, 400, 400, 397, 398, 400, 404, 408, 410, 412, 412, 412, 412, 413, 412, 412, 413, 415, 418, 418, 348, 366, 365.5, 390, 340, 375, 348.0, 540, 303, 340, 320.0, 512, 376, 397, 397.5, 418, 340, 370, 354.0, 540, 303, 358, 347.0, 540, 303, 368, 381.0, 512]",0
"[356, 355, 355, 352, 352, 352, 354, 354, 352, 348, 349, 351, 354, 356, 356, 356, 358, 362, 367, 369, 367, 363, 363, 366, 371, 375, 376, 376, 375, 374, 376, 378, 378, 376, 372, 368, 363, 360, 356, 352, 348, 344, 344, 346, 346, 341, 338, 336, 336, 336, 335, 335, 332, 331, 330, 330, 332, 331, 331, 330, 331, 331, 335, 335, 334, 334, 334, 336, 340, 344, 350, 359, 373, 393, 419, 447, 474, 496, 505, 503, 476, 430, 374, 326, 298, 299, 310, 315, 313, 307, 301, 296, 292, 288, 288, 289, 289, 287, 285, 284, 282, 281, 282, 286, 294, 302, 307, 312, 317, 322, 330, 337, 342, 346, 351, 352, 352, 354, 355, 354, 351, 350, 352, 354, 359, 359, 359, 359, 359, 361, 364, 366, 367, 367, 367, 371, 375, 376, 374, 374, 373, 375, 378, 382, 382, 381, 380, 380, 382, 387, 387, 387, 391, 392, 395, 398, 398, 398, 398, 398, 348, 362, 361.0, 378, 330, 360, 336.0, 505, 281, 320, 308.5, 476, 350, 375, 375.0, 398, 330, 361, 354.0, 505, 281, 340, 334.0, 505, 281, 347, 354.5, 476]",0
"[350, 398, 392, 382, 374, 373, 374, 375, 376, 376, 374, 370, 365, 363, 363, 361, 357, 352, 349, 350, 350, 349, 347, 345, 346, 346, 346, 346, 343, 343, 337, 336, 336, 340, 342, 342, 342, 342, 339, 335, 330, 329, 333, 338, 343, 346, 343, 339, 337, 338, 338, 337, 338, 340, 340, 340, 343, 343, 346, 347, 346, 346, 343, 345, 348, 351, 356, 363, 371, 377, 379, 379, 380, 385, 394, 406, 420, 433, 445, 446, 439, 424, 404, 384, 366, 348, 330, 311, 291, 267, 239, 213, 197, 196, 201, 211, 218, 220, 218, 215, 215, 218, 221, 221, 220, 223, 234, 248, 261, 268, 274, 284, 293, 299, 299, 298, 300, 306, 314, 324, 328, 328, 326, 325, 327, 331, 335, 335, 338, 339, 341, 344, 344, 344, 344, 344, 344, 349, 349, 349, 348, 348, 351, 353, 352, 346, 343, 344, 348, 353, 358, 363, 366, 366, 362, 361, 364, 368, 372, 376, 335, 355, 349.5, 398, 329, 360, 346.0, 446, 196, 275, 267.5, 439, 325, 347, 347.0, 376, 329, 357, 346.5, 446, 196, 317, 338.0, 446, 196, 311, 333.0, 439]",1
"[406, 402, 400, 398, 394, 389, 382, 376, 376, 371, 371, 371, 369, 369, 366, 363, 358, 354, 354, 359, 358, 358, 356, 354, 354, 353, 350, 344, 337, 337, 340, 347, 350, 350, 345, 340, 340, 342, 345, 348, 349, 346, 345, 343, 343, 342, 343, 345, 345, 345, 344, 347, 352, 355, 353, 348, 346, 347, 349, 351, 353, 356, 359, 359, 364, 367, 372, 376, 380, 382, 385, 385, 386, 397, 413, 432, 449, 460, 465, 461, 450, 436, 423, 410, 397, 383, 367, 345, 317, 284, 252, 231, 224, 227, 231, 232, 226, 221, 220, 222, 225, 228, 228, 232, 238, 249, 257, 265, 274, 284, 296, 303, 307, 309, 309, 312, 315, 320, 326, 333, 337, 338, 336, 336, 335, 338, 341, 341, 334, 330, 330, 337, 345, 348, 346, 342, 342, 342, 342, 344, 346, 344, 344, 347, 348, 348, 346, 344, 345, 347, 352, 355, 356, 356, 356, 358, 363, 367, 366, 366, 337, 361, 357.0, 406, 342, 370, 354.0, 465, 220, 292, 284.0, 450, 330, 345, 344.5, 367, 337, 366, 355.5, 465, 220, 331, 345.0, 465, 220, 319, 337.5, 450]",1
"[413, 415, 415, 410, 403, 398, 398, 400, 397, 392, 385, 380, 379, 379, 377, 371, 363, 358, 359, 359, 357, 354, 354, 359, 362, 362, 356, 352, 347, 347, 348, 348, 347, 347, 347, 347, 347, 347, 345, 345, 345, 345, 346, 351, 349, 345, 342, 340, 340, 342, 344, 349, 349, 354, 356, 356, 357, 355, 353, 347, 347, 352, 357, 362, 368, 371, 375, 381, 391, 399, 402, 402, 408, 417, 432, 445, 455, 461, 463, 460, 449, 434, 415, 395, 376, 356, 331, 299, 258, 217, 200, 204, 217, 226, 229, 225, 221, 220, 222, 227, 233, 233, 237, 244, 253, 262, 266, 272, 281, 289, 294, 298, 302, 308, 312, 317, 323, 328, 331, 335, 335, 335, 337, 336, 338, 339, 341, 341, 344, 347, 349, 348, 347, 347, 352, 357, 361, 361, 359, 356, 353, 353, 356, 356, 356, 356, 356, 356, 356, 359, 362, 365, 367, 370, 372, 374, 374, 376, 380, 384, 345, 369, 359.0, 415, 340, 375, 356.0, 463, 200, 285, 276.5, 449, 335, 355, 356.0, 384, 340, 372, 357.5, 463, 200, 330, 345.0, 463, 200, 320, 340.0, 449]",1
"[398, 394, 394, 391, 391, 390, 387, 383, 381, 380, 380, 380, 378, 375, 375, 375, 375, 376, 375, 372, 371, 372, 374, 375, 375, 375, 376, 376, 378, 378, 378, 376, 376, 378, 378, 376, 372, 369, 368, 368, 369, 369, 372, 374, 374, 377, 378, 379, 383, 388, 394, 400, 404, 404, 407, 407, 408, 408, 401, 404, 413, 424, 432, 441, 448, 453, 451, 441, 422, 400, 379, 357, 335, 307, 271, 233, 202, 186, 189, 205, 219, 219, 219, 219, 223, 224, 229, 234, 238, 244, 253, 261, 265, 265, 270, 278, 287, 296, 303, 307, 312, 321, 330, 335, 336, 333, 328, 326, 336, 352, 362, 365, 363, 345, 325, 319, 321, 329, 335, 338, 339, 343, 348, 350, 351, 351, 351, 353, 355, 357, 362, 364, 364, 364, 363, 363, 365, 367, 370, 372, 379, 388, 392, 392, 385, 383, 388, 397, 404, 409, 412, 413, 413, 413, 417, 422, 427, 435, 440, 445, 368, 378, 376.0, 398, 186, 369, 391.0, 453, 219, 294, 309.5, 365, 339, 382, 375.5, 445, 186, 374, 378.0, 453, 186, 331, 335.5, 453, 219, 338, 350.5, 445]",1
"[347, 344, 343, 346, 347, 349, 348, 346, 344, 342, 342, 343, 344, 344, 339, 339, 339, 341, 341, 341, 340, 340, 343, 349, 353, 353, 350, 346, 346, 350, 356, 359, 359, 363, 371, 378, 379, 377, 376, 378, 380, 381, 381, 381, 377, 375, 372, 366, 360, 354, 354, 351, 347, 342, 335, 335, 335, 337, 338, 341, 345, 345, 341, 334, 332, 333, 332, 329, 323, 320, 329, 361, 411, 472, 535, 584, 615, 630, 639, 639, 623, 582, 515, 435, 353, 310, 315, 335, 340, 337, 333, 334, 338, 339, 337, 333, 329, 330, 332, 331, 328, 325, 326, 328, 331, 332, 329, 329, 329, 329, 329, 329, 329, 327, 327, 330, 333, 332, 330, 327, 325, 327, 330, 332, 332, 332, 332, 329, 328, 328, 330, 332, 332, 334, 336, 338, 337, 334, 333, 334, 337, 340, 340, 338, 336, 337, 340, 342, 346, 351, 351, 348, 347, 348, 349, 351, 354, 358, 363, 366, 339, 350, 346.0, 379, 320, 392, 352.5, 639, 310, 351, 330.5, 623, 325, 339, 337.0, 366, 320, 371, 347.0, 639, 310, 371, 335.0, 639, 310, 345, 333.0, 623]",0
"[351, 353, 353, 350, 350, 351, 351, 353, 353, 351, 348, 347, 349, 351, 351, 350, 350, 352, 354, 354, 354, 354, 354, 353, 355, 358, 360, 362, 363, 366, 373, 380, 383, 384, 384, 384, 384, 388, 388, 386, 383, 378, 375, 372, 372, 368, 365, 361, 359, 355, 352, 349, 349, 347, 346, 346, 350, 352, 350, 342, 339, 344, 351, 353, 349, 343, 339, 336, 338, 351, 377, 419, 476, 534, 580, 612, 630, 637, 636, 628, 608, 571, 509, 427, 346, 298, 301, 321, 329, 329, 322, 320, 322, 327, 332, 332, 332, 332, 332, 329, 328, 326, 326, 328, 332, 334, 335, 334, 329, 327, 326, 328, 328, 328, 328, 329, 331, 335, 337, 336, 332, 331, 331, 334, 338, 341, 341, 340, 336, 335, 337, 342, 345, 345, 342, 339, 339, 339, 338, 338, 340, 340, 344, 348, 350, 350, 347, 346, 349, 356, 360, 360, 359, 359, 361, 365, 367, 367, 365, 363, 347, 360, 354.0, 388, 336, 403, 354.0, 637, 298, 348, 329.0, 608, 331, 346, 343.0, 367, 336, 382, 354.0, 637, 298, 375, 342.5, 637, 298, 347, 336.5, 608]",0
"[350, 366, 366, 364, 362, 362, 366, 366, 365, 363, 362, 363, 369, 369, 367, 363, 360, 359, 362, 362, 362, 367, 368, 370, 371, 373, 375, 377, 378, 382, 388, 395, 399, 398, 395, 395, 395, 396, 395, 394, 394, 394, 390, 384, 382, 379, 373, 366, 364, 370, 374, 369, 361, 356, 355, 356, 359, 360, 359, 357, 355, 356, 362, 363, 359, 349, 339, 336, 343, 355, 371, 398, 442, 495, 549, 588, 610, 622, 626, 625, 610, 581, 527, 463, 391, 331, 316, 327, 340, 341, 338, 337, 342, 347, 349, 347, 342, 340, 340, 342, 341, 340, 338, 336, 338, 338, 341, 340, 340, 341, 337, 336, 338, 341, 340, 338, 339, 340, 342, 343, 342, 340, 341, 343, 346, 343, 335, 334, 341, 346, 347, 347, 345, 347, 349, 344, 343, 346, 349, 348, 346, 349, 355, 359, 359, 359, 357, 359, 362, 365, 365, 367, 365, 365, 369, 373, 375, 377, 378, 379, 350, 373, 367.5, 399, 336, 406, 367.5, 626, 316, 360, 340.0, 610, 334, 353, 349.0, 379, 336, 389, 367.5, 626, 316, 383, 355.0, 626, 316, 357, 343.0, 610]",0
"[327, 329, 330, 330, 329, 333, 333, 333, 332, 330, 329, 332, 336, 336, 336, 336, 336, 336, 337, 337, 337, 339, 341, 341, 341, 338, 340, 345, 350, 354, 360, 366, 371, 370, 370, 375, 380, 382, 382, 381, 378, 373, 366, 357, 349, 345, 344, 343, 341, 341, 341, 335, 335, 335, 333, 333, 333, 331, 332, 335, 335, 335, 334, 334, 334, 336, 336, 329, 326, 329, 343, 364, 393, 432, 477, 523, 559, 578, 588, 591, 586, 567, 531, 478, 409, 335, 285, 283, 309, 323, 323, 318, 312, 313, 319, 323, 326, 327, 326, 322, 322, 324, 324, 324, 326, 323, 322, 324, 325, 325, 322, 321, 322, 325, 328, 329, 329, 330, 329, 329, 329, 335, 335, 331, 324, 318, 318, 324, 324, 328, 328, 328, 330, 330, 330, 331, 331, 336, 339, 341, 339, 338, 338, 339, 342, 345, 345, 345, 344, 345, 347, 351, 353, 353, 353, 353, 355, 359, 364, 368, 327, 345, 337.0, 382, 326, 376, 341.0, 591, 283, 345, 324.0, 586, 318, 339, 338.5, 368, 326, 360, 337.5, 591, 283, 360, 333.0, 591, 283, 342, 329.0, 586]",0
"[329, 329, 329, 329, 328, 326, 326, 326, 329, 333, 330, 326, 326, 328, 331, 331, 329, 327, 329, 329, 332, 332, 335, 335, 336, 337, 344, 349, 351, 351, 354, 362, 371, 376, 376, 375, 372, 367, 366, 370, 376, 375, 370, 359, 346, 338, 338, 333, 328, 322, 322, 324, 327, 329, 329, 330, 329, 327, 327, 324, 326, 333, 339, 343, 345, 341, 332, 322, 322, 337, 362, 396, 440, 492, 537, 564, 578, 581, 581, 575, 559, 528, 479, 415, 338, 276, 263, 276, 297, 306, 305, 303, 305, 313, 319, 322, 322, 322, 320, 318, 318, 320, 322, 324, 324, 324, 327, 327, 324, 318, 316, 316, 316, 319, 320, 319, 317, 315, 315, 319, 321, 319, 315, 315, 318, 322, 324, 324, 324, 324, 330, 332, 332, 330, 331, 334, 334, 336, 335, 331, 325, 320, 320, 322, 322, 324, 327, 332, 332, 332, 332, 336, 341, 344, 345, 345, 350, 356, 360, 361, 326, 341, 332.0, 376, 322, 379, 338.0, 581, 263, 332, 319.0, 559, 315, 331, 331.0, 361, 322, 360, 334.0, 581, 263, 356, 326.5, 581, 263, 331, 324.0, 559]",0
"[330, 330, 330, 327, 323, 324, 333, 333, 331, 326, 324, 326, 332, 335, 335, 328, 326, 328, 330, 334, 336, 335, 335, 334, 334, 333, 335, 340, 345, 348, 350, 353, 360, 368, 368, 367, 367, 363, 363, 361, 361, 362, 361, 358, 355, 352, 347, 345, 343, 343, 339, 333, 328, 328, 325, 325, 325, 326, 327, 332, 332, 332, 333, 333, 335, 335, 330, 322, 317, 321, 338, 366, 404, 449, 496, 538, 568, 585, 593, 588, 570, 533, 472, 398, 330, 289, 290, 302, 306, 308, 308, 313, 317, 318, 317, 316, 317, 321, 323, 322, 319, 317, 320, 326, 328, 325, 317, 315, 319, 325, 326, 326, 326, 324, 326, 328, 330, 327, 320, 311, 310, 316, 318, 318, 317, 317, 322, 326, 327, 327, 327, 329, 332, 336, 338, 336, 333, 331, 326, 324, 324, 324, 327, 332, 337, 342, 346, 344, 341, 338, 340, 346, 351, 351, 351, 352, 355, 355, 359, 361, 323, 339, 334.0, 368, 317, 375, 338.5, 593, 289, 335, 320.5, 570, 310, 334, 332.5, 361, 317, 357, 335.0, 593, 289, 355, 327.5, 593, 289, 335, 326.0, 570]",0
"[315, 315, 313, 313, 315, 315, 315, 315, 312, 311, 312, 314, 319, 322, 322, 323, 323, 326, 329, 329, 331, 333, 337, 342, 343, 345, 347, 344, 344, 344, 347, 349, 348, 345, 340, 337, 334, 330, 325, 320, 320, 320, 317, 319, 319, 315, 315, 312, 312, 313, 313, 313, 312, 312, 313, 314, 314, 312, 310, 311, 314, 316, 319, 319, 319, 318, 319, 321, 323, 326, 332, 341, 355, 376, 403, 432, 461, 491, 515, 526, 520, 488, 430, 368, 315, 280, 274, 282, 288, 287, 284, 282, 282, 276, 272, 270, 269, 270, 273, 273, 273, 271, 269, 271, 278, 284, 289, 293, 299, 307, 317, 327, 335, 338, 338, 340, 342, 344, 347, 349, 349, 349, 352, 355, 356, 356, 355, 355, 357, 362, 363, 363, 364, 363, 363, 364, 367, 369, 369, 369, 371, 374, 377, 378, 380, 380, 380, 383, 390, 390, 392, 392, 392, 396, 396, 401, 404, 404, 404, 407, 311, 328, 327.5, 349, 310, 342, 319.0, 526, 269, 312, 287.5, 520, 349, 374, 370.0, 407, 310, 335, 320.0, 526, 269, 327, 315.0, 526, 269, 343, 355.0, 520]",0
"[339, 341, 341, 343, 343, 340, 340, 340, 340, 340, 340, 340, 340, 342, 345, 345, 348, 348, 348, 351, 355, 359, 362, 363, 365, 368, 370, 372, 372, 374, 373, 373, 373, 373, 370, 365, 358, 352, 347, 347, 347, 344, 342, 338, 336, 336, 335, 336, 333, 332, 332, 333, 333, 333, 333, 330, 329, 329, 329, 329, 329, 334, 334, 333, 335, 335, 334, 335, 335, 342, 347, 360, 374, 391, 418, 449, 482, 514, 536, 543, 531, 490, 432, 371, 321, 293, 290, 297, 303, 303, 299, 294, 288, 281, 279, 281, 281, 284, 283, 283, 283, 280, 282, 285, 288, 292, 298, 307, 317, 326, 333, 338, 342, 342, 342, 348, 349, 351, 353, 358, 361, 362, 360, 358, 359, 359, 365, 367, 368, 368, 368, 368, 370, 371, 371, 371, 373, 375, 377, 379, 380, 380, 380, 379, 381, 385, 388, 388, 389, 390, 392, 393, 396, 395, 395, 396, 398, 401, 405, 405, 339, 353, 348.0, 374, 329, 361, 335.0, 543, 279, 322, 301.0, 531, 358, 379, 379.0, 405, 329, 357, 342.5, 543, 279, 341, 333.0, 543, 279, 350, 360.5, 531]",0
"[350, 349, 349, 347, 348, 351, 352, 352, 352, 353, 355, 357, 357, 356, 353, 353, 353, 352, 352, 354, 354, 355, 357, 360, 360, 355, 349, 347, 345, 345, 345, 342, 340, 338, 336, 336, 337, 336, 336, 336, 336, 335, 335, 336, 336, 335, 334, 334, 336, 336, 336, 336, 336, 334, 334, 337, 337, 336, 335, 334, 334, 334, 334, 331, 325, 319, 315, 313, 308, 307, 313, 329, 351, 372, 402, 437, 469, 492, 502, 502, 481, 439, 383, 337, 315, 315, 322, 327, 329, 329, 329, 328, 328, 328, 328, 328, 327, 327, 327, 327, 327, 327, 327, 327, 327, 329, 329, 329, 326, 326, 327, 327, 327, 329, 329, 327, 327, 327, 329, 329, 327, 327, 329, 328, 329, 329, 329, 327, 329, 329, 330, 330, 328, 326, 327, 327, 328, 329, 329, 329, 327, 328, 329, 329, 329, 329, 328, 329, 329, 329, 329, 329, 329, 329, 331, 331, 331, 329, 328, 328, 336, 348, 351.5, 360, 307, 352, 335.0, 502, 315, 335, 327.0, 481, 326, 328, 329.0, 331, 307, 350, 341.0, 502, 307, 343, 329.0, 502, 315, 331, 328.5, 481]",0
"[342, 346, 346, 348, 347, 346, 347, 349, 351, 351, 353, 353, 352, 353, 353, 353, 353, 353, 350, 352, 353, 353, 353, 356, 357, 358, 355, 352, 348, 348, 348, 344, 344, 344, 341, 338, 336, 336, 335, 336, 336, 335, 335, 335, 333, 333, 334, 333, 333, 332, 332, 333, 333, 332, 331, 330, 330, 332, 332, 332, 332, 331, 330, 328, 324, 321, 316, 311, 304, 302, 310, 325, 343, 363, 390, 424, 458, 482, 494, 494, 475, 436, 388, 349, 324, 314, 314, 319, 322, 324, 324, 324, 324, 324, 326, 326, 327, 327, 325, 325, 326, 328, 329, 328, 328, 328, 327, 328, 328, 326, 326, 326, 326, 326, 326, 326, 326, 326, 322, 322, 322, 326, 326, 324, 324, 324, 324, 325, 325, 323, 323, 324, 325, 325, 325, 324, 324, 324, 326, 326, 324, 325, 323, 323, 323, 326, 327, 327, 326, 326, 326, 326, 326, 325, 323, 323, 323, 323, 323, 324, 335, 348, 349.5, 358, 302, 348, 332.0, 494, 314, 333, 326.0, 475, 322, 324, 324.0, 327, 302, 348, 343.5, 494, 302, 341, 328.0, 494, 314, 329, 325.0, 475]",0
"[308, 307, 310, 310, 312, 312, 312, 314, 316, 316, 316, 316, 314, 314, 316, 319, 320, 323, 323, 327, 327, 327, 327, 327, 324, 324, 324, 324, 323, 322, 322, 319, 318, 319, 320, 318, 315, 312, 309, 309, 309, 308, 308, 305, 306, 307, 308, 308, 308, 306, 305, 305, 306, 306, 307, 307, 305, 305, 306, 306, 307, 307, 305, 304, 302, 301, 296, 292, 292, 300, 322, 354, 393, 441, 489, 530, 549, 547, 528, 489, 447, 414, 392, 386, 382, 372, 356, 345, 338, 330, 322, 316, 311, 306, 303, 302, 302, 302, 300, 299, 299, 298, 298, 298, 297, 297, 296, 296, 296, 297, 297, 297, 297, 296, 297, 297, 297, 297, 296, 296, 295, 296, 296, 296, 296, 295, 296, 297, 297, 297, 295, 294, 294, 296, 296, 297, 296, 294, 295, 296, 297, 297, 297, 297, 297, 298, 300, 300, 301, 301, 301, 303, 303, 304, 303, 304, 304, 306, 308, 308, 307, 317, 318.0, 327, 292, 344, 307.0, 549, 296, 319, 299.0, 447, 294, 298, 297.0, 308, 292, 331, 313.0, 549, 292, 331, 306.0, 549, 294, 308, 297.0, 447]",0
"[315, 316, 318, 318, 318, 320, 320, 319, 319, 321, 321, 321, 321, 323, 326, 329, 330, 332, 332, 331, 329, 329, 329, 330, 330, 327, 327, 327, 327, 326, 326, 323, 323, 325, 324, 321, 318, 318, 313, 313, 315, 315, 315, 312, 312, 312, 312, 312, 310, 310, 310, 310, 310, 312, 311, 311, 308, 309, 310, 310, 311, 311, 309, 309, 309, 307, 303, 299, 297, 302, 318, 343, 377, 418, 462, 507, 539, 549, 535, 500, 456, 418, 394, 384, 379, 369, 354, 343, 337, 333, 329, 322, 317, 312, 308, 308, 308, 308, 308, 306, 306, 306, 307, 306, 306, 303, 304, 304, 304, 304, 305, 305, 305, 305, 305, 306, 305, 305, 303, 303, 305, 305, 305, 305, 303, 304, 304, 304, 305, 305, 303, 303, 304, 304, 305, 305, 303, 303, 305, 304, 304, 304, 304, 303, 304, 307, 307, 308, 307, 307, 307, 309, 310, 310, 310, 311, 312, 314, 314, 314, 313, 323, 323.0, 332, 297, 345, 311.0, 549, 303, 324, 306.5, 456, 303, 306, 305.0, 314, 297, 334, 318.5, 549, 297, 335, 310.0, 549, 303, 315, 306.0, 456]",0
"[315, 315, 315, 315, 318, 321, 321, 324, 324, 324, 320, 320, 320, 324, 324, 324, 325, 330, 336, 339, 339, 337, 335, 333, 333, 333, 333, 331, 329, 329, 330, 330, 331, 328, 326, 325, 325, 325, 324, 321, 317, 317, 317, 318, 317, 316, 316, 315, 315, 315, 315, 315, 315, 315, 315, 315, 315, 315, 314, 314, 313, 313, 314, 315, 313, 308, 304, 303, 305, 315, 335, 365, 401, 444, 488, 532, 552, 551, 533, 493, 451, 419, 397, 386, 380, 366, 352, 339, 333, 328, 322, 318, 315, 313, 313, 310, 310, 310, 312, 312, 312, 312, 309, 309, 309, 309, 309, 308, 308, 308, 308, 308, 309, 309, 309, 307, 306, 308, 309, 309, 308, 308, 308, 308, 309, 309, 306, 306, 305, 307, 309, 309, 309, 309, 307, 307, 307, 309, 310, 309, 307, 307, 307, 307, 309, 308, 309, 309, 310, 312, 312, 312, 312, 311, 311, 311, 314, 314, 314, 316, 315, 326, 325.0, 339, 303, 352, 315.0, 552, 306, 326, 310.0, 451, 305, 309, 309.0, 316, 303, 339, 321.0, 552, 303, 339, 315.0, 552, 305, 317, 309.0, 451]",0
"[350, 350, 350, 323, 325, 327, 331, 333, 332, 330, 327, 323, 322, 326, 330, 330, 332, 333, 337, 343, 346, 346, 344, 341, 341, 341, 341, 341, 342, 342, 338, 335, 335, 331, 331, 329, 328, 328, 328, 330, 329, 326, 321, 314, 312, 314, 319, 321, 324, 322, 320, 318, 317, 317, 318, 319, 319, 320, 319, 318, 316, 315, 317, 317, 317, 318, 314, 308, 306, 309, 322, 346, 379, 419, 468, 516, 555, 568, 557, 524, 477, 435, 408, 396, 388, 375, 360, 349, 343, 336, 330, 326, 321, 317, 317, 313, 313, 313, 313, 313, 312, 312, 313, 313, 313, 310, 310, 310, 310, 313, 311, 310, 310, 310, 311, 311, 309, 308, 308, 308, 309, 309, 309, 309, 309, 313, 314, 313, 313, 313, 313, 312, 309, 308, 310, 310, 309, 307, 307, 306, 307, 309, 309, 309, 313, 312, 309, 308, 307, 307, 308, 311, 311, 314, 313, 312, 314, 317, 319, 317, 322, 334, 332.5, 350, 306, 354, 319.0, 568, 308, 331, 313.0, 477, 306, 310, 309.5, 319, 306, 344, 328.5, 568, 306, 342, 317.0, 568, 306, 321, 312.0, 477]",0
"[383, 383, 379, 374, 371, 371, 365, 363, 358, 355, 355, 353, 353, 353, 351, 349, 349, 349, 351, 353, 352, 350, 347, 344, 343, 343, 345, 345, 345, 345, 345, 347, 350, 350, 350, 350, 350, 350, 350, 347, 347, 349, 352, 356, 357, 355, 354, 357, 360, 362, 363, 363, 361, 361, 362, 363, 363, 363, 363, 369, 373, 376, 382, 392, 403, 417, 433, 451, 467, 485, 505, 529, 554, 580, 602, 622, 637, 648, 655, 659, 662, 658, 645, 620, 582, 528, 461, 410, 389, 384, 375, 355, 329, 303, 289, 278, 274, 268, 268, 264, 264, 263, 265, 270, 278, 287, 293, 294, 292, 292, 295, 299, 299, 298, 299, 300, 301, 301, 300, 300, 300, 301, 302, 306, 310, 313, 313, 308, 303, 302, 305, 308, 308, 307, 303, 303, 306, 310, 312, 312, 312, 315, 320, 324, 326, 325, 322, 322, 319, 321, 323, 324, 324, 324, 328, 332, 334, 336, 336, 335, 343, 354, 350.0, 383, 347, 433, 371.0, 659, 263, 353, 299.0, 662, 300, 315, 313.0, 336, 343, 393, 359.0, 659, 263, 393, 361.5, 662, 263, 334, 308.0, 662]",1
"[402, 402, 404, 404, 404, 401, 400, 400, 398, 396, 393, 389, 387, 384, 382, 378, 372, 367, 366, 366, 365, 364, 361, 357, 355, 355, 356, 355, 351, 347, 345, 346, 346, 348, 347, 345, 345, 345, 342, 343, 344, 345, 346, 345, 345, 342, 342, 343, 343, 344, 347, 350, 351, 353, 351, 352, 356, 363, 370, 378, 385, 395, 408, 423, 435, 450, 466, 483, 504, 525, 545, 566, 585, 601, 619, 640, 658, 669, 674, 675, 667, 646, 621, 594, 567, 540, 513, 486, 458, 428, 396, 361, 327, 299, 280, 270, 268, 268, 264, 263, 267, 271, 275, 275, 279, 279, 281, 281, 281, 285, 285, 287, 289, 292, 294, 293, 293, 294, 298, 300, 300, 297, 294, 292, 292, 290, 288, 289, 291, 291, 295, 298, 301, 303, 302, 302, 300, 302, 306, 308, 309, 308, 310, 309, 310, 310, 311, 312, 311, 311, 312, 316, 316, 316, 319, 320, 322, 325, 327, 328, 342, 370, 365.5, 404, 342, 442, 381.5, 675, 263, 355, 292.5, 667, 288, 306, 308.0, 328, 342, 406, 366.5, 675, 263, 399, 350.5, 675, 263, 330, 300.5, 667]",1
"[350, 341, 340, 342, 345, 347, 347, 346, 346, 346, 350, 351, 351, 354, 352, 352, 351, 351, 351, 349, 347, 345, 344, 345, 345, 344, 342, 342, 343, 345, 342, 340, 337, 336, 336, 338, 338, 340, 339, 335, 335, 337, 338, 338, 338, 337, 337, 337, 338, 340, 340, 338, 337, 337, 339, 341, 341, 339, 339, 339, 339, 339, 339, 339, 338, 337, 340, 341, 339, 335, 334, 337, 354, 377, 400, 423, 446, 464, 479, 479, 471, 447, 421, 394, 366, 325, 288, 262, 258, 267, 283, 297, 307, 316, 323, 328, 332, 336, 339, 341, 342, 342, 342, 342, 345, 345, 344, 344, 346, 346, 350, 350, 352, 353, 352, 353, 353, 358, 358, 361, 363, 363, 365, 369, 372, 372, 372, 375, 379, 383, 385, 386, 387, 388, 390, 393, 396, 396, 397, 397, 397, 399, 401, 400, 400, 400, 396, 397, 396, 397, 395, 391, 387, 385, 385, 382, 379, 373, 369, 369, 335, 344, 345.0, 354, 334, 356, 339.0, 479, 258, 341, 344.0, 471, 363, 385, 387.0, 401, 334, 350, 341.0, 479, 258, 349, 339.5, 479, 258, 363, 369.0, 471]",0
"[344, 343, 342, 343, 343, 346, 348, 348, 348, 350, 352, 352, 355, 354, 354, 351, 349, 349, 349, 347, 345, 343, 343, 345, 343, 343, 343, 343, 343, 343, 343, 340, 340, 338, 338, 338, 338, 338, 335, 335, 335, 337, 340, 339, 339, 336, 336, 337, 337, 340, 340, 340, 338, 338, 338, 339, 338, 338, 338, 338, 339, 341, 341, 341, 339, 339, 339, 339, 339, 339, 342, 354, 373, 394, 414, 431, 448, 463, 472, 478, 472, 453, 425, 398, 365, 326, 290, 263, 258, 269, 282, 294, 305, 315, 323, 328, 331, 336, 340, 341, 339, 338, 339, 343, 346, 347, 347, 347, 348, 349, 352, 352, 354, 354, 354, 357, 360, 363, 363, 363, 365, 369, 373, 376, 376, 378, 378, 381, 383, 386, 388, 388, 390, 392, 394, 397, 398, 398, 397, 396, 398, 399, 399, 400, 399, 396, 395, 396, 396, 393, 389, 385, 385, 382, 381, 379, 375, 370, 365, 364, 335, 344, 343.0, 355, 335, 358, 339.0, 478, 258, 343, 346.5, 472, 364, 386, 388.0, 400, 335, 351, 342.0, 478, 258, 350, 340.0, 478, 258, 364, 369.5, 472]",0
"[343, 343, 346, 348, 348, 346, 345, 346, 349, 353, 355, 355, 353, 353, 353, 353, 352, 350, 348, 348, 348, 346, 346, 345, 343, 343, 343, 345, 345, 344, 342, 339, 339, 339, 342, 342, 340, 340, 340, 340, 340, 339, 339, 337, 337, 337, 341, 343, 343, 341, 338, 337, 337, 339, 340, 340, 340, 340, 340, 340, 340, 341, 341, 339, 341, 343, 342, 338, 338, 336, 343, 358, 375, 394, 411, 431, 451, 466, 466, 462, 444, 421, 398, 375, 340, 301, 269, 257, 262, 280, 293, 303, 312, 320, 328, 333, 338, 338, 338, 340, 341, 343, 346, 346, 347, 348, 348, 349, 351, 352, 352, 352, 351, 352, 355, 357, 358, 358, 358, 360, 363, 366, 369, 369, 371, 373, 376, 379, 381, 381, 381, 383, 387, 392, 394, 394, 394, 394, 394, 395, 397, 398, 398, 396, 396, 396, 396, 400, 399, 395, 394, 395, 395, 392, 388, 384, 382, 380, 380, 378, 339, 345, 345.5, 355, 336, 358, 340.0, 466, 257, 340, 346.5, 444, 363, 386, 392.0, 400, 336, 352, 343.0, 466, 257, 349, 341.0, 466, 257, 363, 370.0, 444]",0
"[345, 347, 347, 346, 345, 345, 347, 349, 351, 352, 352, 352, 351, 353, 356, 357, 356, 354, 353, 353, 351, 351, 350, 350, 345, 345, 348, 348, 347, 347, 347, 347, 344, 342, 341, 340, 340, 337, 339, 341, 341, 339, 337, 337, 338, 339, 339, 339, 339, 338, 339, 341, 341, 339, 338, 338, 338, 340, 340, 341, 341, 340, 340, 340, 342, 342, 342, 339, 338, 338, 339, 344, 352, 365, 382, 402, 422, 441, 455, 462, 458, 447, 430, 411, 382, 342, 302, 269, 258, 263, 278, 289, 298, 310, 323, 332, 336, 338, 338, 339, 341, 344, 346, 346, 346, 345, 348, 350, 351, 350, 349, 350, 352, 355, 356, 357, 357, 359, 359, 362, 365, 367, 368, 369, 369, 373, 377, 377, 380, 381, 384, 387, 391, 391, 393, 392, 392, 392, 396, 396, 396, 396, 395, 395, 399, 400, 399, 397, 397, 396, 396, 396, 393, 389, 387, 385, 385, 384, 381, 378, 337, 347, 347.0, 357, 337, 353, 340.0, 462, 258, 344, 346.0, 458, 365, 387, 391.0, 400, 337, 350, 344.5, 462, 258, 348, 341.0, 462, 258, 365, 371.0, 458]",0
"[309, 309, 307, 307, 308, 308, 308, 310, 307, 306, 307, 310, 314, 317, 320, 320, 320, 321, 321, 326, 326, 329, 332, 335, 340, 342, 341, 341, 341, 339, 339, 342, 342, 336, 330, 322, 318, 318, 314, 311, 311, 308, 308, 309, 307, 304, 303, 301, 301, 301, 303, 304, 303, 300, 299, 300, 300, 301, 301, 301, 301, 303, 305, 305, 304, 304, 304, 307, 312, 319, 328, 339, 357, 383, 418, 453, 488, 514, 524, 517, 490, 438, 373, 313, 270, 254, 258, 264, 265, 262, 257, 252, 252, 252, 249, 251, 251, 251, 251, 253, 253, 253, 256, 263, 271, 280, 288, 294, 301, 307, 315, 319, 322, 324, 324, 324, 327, 330, 330, 330, 334, 334, 334, 333, 336, 338, 340, 338, 338, 339, 342, 344, 344, 344, 345, 346, 351, 354, 354, 354, 353, 354, 359, 361, 364, 364, 367, 369, 373, 373, 376, 376, 376, 380, 383, 387, 390, 392, 392, 391, 306, 322, 320.0, 342, 299, 336, 304.5, 524, 249, 292, 270.5, 490, 333, 358, 354.0, 392, 299, 329, 311.0, 524, 249, 314, 303.5, 524, 249, 325, 334.0, 490]",0
"[320, 320, 317, 314, 315, 317, 318, 318, 317, 318, 321, 323, 326, 326, 326, 327, 330, 333, 335, 336, 336, 337, 339, 344, 348, 348, 347, 347, 348, 350, 351, 350, 346, 341, 337, 332, 330, 327, 324, 318, 317, 317, 316, 314, 313, 311, 310, 311, 311, 312, 312, 310, 308, 307, 310, 311, 311, 311, 311, 311, 311, 314, 314, 313, 313, 313, 317, 317, 320, 324, 330, 343, 363, 392, 426, 463, 498, 522, 533, 526, 496, 442, 377, 319, 280, 272, 278, 281, 280, 272, 266, 262, 262, 262, 262, 262, 264, 263, 262, 262, 260, 262, 268, 276, 285, 292, 298, 305, 311, 320, 329, 329, 334, 334, 336, 336, 339, 341, 341, 341, 341, 345, 347, 347, 350, 350, 349, 350, 351, 354, 356, 357, 357, 357, 360, 363, 363, 365, 363, 363, 366, 371, 375, 376, 376, 375, 377, 381, 384, 384, 387, 390, 393, 395, 397, 397, 397, 397, 400, 404, 314, 331, 330.0, 351, 307, 344, 313.5, 533, 260, 304, 283.0, 496, 341, 370, 365.5, 404, 307, 338, 320.5, 533, 260, 324, 312.0, 533, 260, 337, 347.0, 496]",0
"[350, 350, 352, 351, 352, 352, 352, 353, 352, 352, 352, 355, 357, 358, 358, 358, 358, 358, 358, 358, 359, 359, 358, 358, 359, 360, 363, 363, 361, 356, 351, 351, 349, 347, 344, 344, 340, 340, 340, 340, 340, 339, 339, 339, 339, 340, 338, 337, 337, 337, 337, 339, 338, 338, 336, 337, 338, 338, 338, 338, 338, 334, 333, 330, 325, 322, 320, 316, 311, 311, 319, 332, 348, 368, 395, 428, 459, 479, 486, 482, 462, 422, 375, 336, 316, 317, 326, 331, 331, 331, 329, 329, 331, 333, 334, 333, 333, 331, 332, 332, 334, 334, 333, 333, 333, 334, 335, 335, 333, 332, 332, 332, 333, 333, 333, 331, 331, 331, 333, 333, 332, 332, 332, 334, 334, 334, 333, 333, 333, 333, 333, 333, 335, 335, 333, 332, 333, 333, 333, 333, 333, 334, 334, 336, 336, 335, 335, 333, 333, 335, 335, 335, 334, 333, 334, 336, 336, 336, 336, 335, 340, 353, 352.5, 363, 311, 352, 338.0, 486, 316, 338, 333.0, 462, 332, 333, 334.0, 336, 311, 352, 348.5, 486, 311, 345, 333.5, 486, 316, 335, 333.0, 462]",0
"[342, 341, 341, 342, 344, 344, 345, 344, 345, 348, 350, 351, 352, 352, 352, 352, 355, 356, 356, 354, 353, 353, 354, 355, 356, 356, 356, 356, 356, 357, 354, 349, 345, 344, 343, 343, 343, 343, 337, 336, 336, 336, 339, 339, 339, 339, 335, 336, 336, 336, 336, 333, 333, 334, 334, 334, 334, 331, 331, 331, 331, 330, 331, 329, 327, 324, 320, 320, 315, 310, 309, 319, 337, 355, 380, 411, 445, 472, 489, 490, 472, 428, 377, 335, 313, 311, 317, 323, 325, 325, 327, 328, 327, 327, 326, 325, 325, 325, 325, 324, 324, 324, 324, 324, 324, 324, 323, 323, 323, 323, 324, 325, 325, 324, 325, 325, 327, 326, 326, 326, 323, 324, 325, 325, 325, 325, 325, 322, 323, 323, 323, 323, 323, 325, 325, 325, 325, 325, 325, 323, 323, 324, 325, 323, 322, 322, 322, 324, 324, 325, 325, 325, 325, 325, 325, 325, 323, 322, 323, 324, 336, 348, 350.5, 357, 309, 348, 334.0, 490, 311, 331, 325.0, 472, 322, 323, 324.0, 325, 309, 348, 343.0, 490, 309, 340, 327.0, 490, 311, 327, 325.0, 472]",0
"[339, 332, 325, 316, 312, 316, 326, 333, 333, 331, 328, 329, 334, 339, 343, 343, 346, 348, 351, 358, 366, 372, 374, 372, 367, 365, 370, 376, 377, 372, 363, 350, 337, 328, 328, 322, 320, 318, 316, 315, 314, 311, 308, 308, 312, 314, 314, 316, 315, 314, 315, 316, 318, 317, 316, 317, 326, 340, 348, 343, 325, 299, 290, 298, 312, 314, 314, 313, 316, 325, 335, 347, 364, 387, 416, 448, 478, 499, 507, 501, 473, 425, 372, 328, 297, 280, 280, 288, 297, 300, 297, 289, 278, 269, 266, 267, 270, 270, 265, 252, 241, 240, 244, 251, 256, 262, 268, 273, 277, 281, 287, 293, 303, 313, 319, 324, 326, 329, 331, 333, 338, 341, 338, 328, 315, 312, 314, 319, 325, 331, 338, 338, 341, 341, 337, 328, 325, 326, 329, 334, 337, 339, 339, 340, 345, 352, 356, 356, 356, 355, 352, 352, 353, 358, 360, 359, 356, 353, 354, 359, 312, 342, 338.0, 377, 290, 344, 316.0, 507, 240, 295, 284.0, 473, 312, 340, 339.5, 360, 290, 343, 328.5, 507, 240, 319, 314.0, 507, 240, 318, 327.0, 473]",0
"[303, 303, 302, 302, 310, 319, 325, 322, 312, 301, 298, 303, 308, 310, 311, 315, 315, 316, 316, 320, 320, 324, 327, 331, 333, 329, 329, 331, 334, 337, 334, 329, 324, 324, 327, 331, 329, 324, 318, 310, 301, 298, 300, 309, 313, 315, 313, 304, 292, 284, 282, 284, 287, 290, 296, 302, 305, 306, 303, 293, 284, 281, 286, 293, 296, 295, 294, 298, 303, 306, 313, 327, 348, 370, 391, 414, 440, 467, 485, 487, 475, 434, 371, 309, 266, 261, 266, 269, 269, 264, 263, 260, 260, 256, 251, 243, 237, 237, 241, 243, 243, 243, 248, 249, 252, 259, 266, 274, 282, 289, 295, 299, 303, 306, 304, 304, 308, 316, 324, 329, 328, 324, 320, 320, 317, 317, 322, 333, 342, 346, 345, 342, 339, 339, 339, 343, 347, 349, 349, 336, 327, 331, 341, 348, 351, 352, 357, 362, 365, 364, 365, 365, 363, 365, 366, 372, 379, 386, 386, 384, 298, 318, 320.0, 337, 281, 323, 302.5, 487, 237, 284, 266.0, 475, 317, 348, 346.5, 386, 281, 321, 312.5, 487, 237, 304, 295.5, 487, 237, 316, 323.0, 475]",0
"[345, 346, 345, 344, 344, 345, 347, 349, 350, 350, 349, 350, 353, 356, 358, 359, 359, 361, 363, 367, 369, 371, 371, 373, 373, 375, 378, 377, 373, 373, 373, 369, 367, 363, 358, 352, 352, 348, 347, 347, 344, 342, 342, 340, 340, 341, 339, 337, 338, 338, 338, 338, 338, 334, 334, 335, 335, 338, 339, 337, 336, 336, 338, 340, 340, 339, 341, 343, 346, 350, 356, 363, 376, 396, 423, 453, 483, 510, 529, 539, 536, 513, 472, 418, 365, 325, 302, 302, 309, 311, 310, 305, 299, 296, 296, 293, 289, 289, 293, 293, 296, 293, 289, 289, 286, 290, 295, 301, 304, 306, 312, 320, 329, 337, 343, 348, 350, 356, 358, 361, 361, 360, 360, 363, 363, 363, 366, 366, 367, 369, 371, 371, 374, 374, 373, 374, 376, 380, 380, 382, 381, 381, 383, 385, 385, 385, 388, 388, 393, 395, 399, 399, 399, 399, 402, 405, 409, 411, 411, 411, 344, 358, 358.0, 378, 334, 365, 340.0, 539, 286, 329, 305.5, 536, 360, 382, 381.0, 411, 334, 361, 349.0, 539, 286, 347, 338.0, 539, 286, 356, 363.0, 536]",0
"[350, 350, 350, 353, 352, 353, 354, 353, 353, 353, 354, 355, 359, 364, 366, 366, 365, 365, 365, 371, 371, 377, 377, 378, 380, 382, 382, 384, 382, 379, 375, 375, 375, 371, 367, 361, 357, 354, 354, 352, 348, 346, 346, 346, 347, 346, 344, 342, 339, 339, 339, 340, 340, 339, 339, 339, 340, 340, 340, 340, 340, 338, 338, 341, 343, 344, 344, 345, 348, 353, 362, 376, 396, 420, 452, 484, 514, 540, 549, 549, 517, 469, 412, 357, 315, 298, 300, 308, 311, 308, 302, 298, 296, 296, 296, 294, 294, 294, 294, 294, 294, 291, 290, 290, 296, 303, 309, 315, 321, 328, 337, 346, 353, 356, 357, 357, 358, 358, 362, 366, 367, 367, 367, 368, 371, 373, 373, 373, 373, 372, 377, 380, 383, 383, 383, 383, 384, 386, 389, 391, 391, 391, 393, 396, 398, 398, 399, 399, 401, 404, 408, 411, 414, 416, 416, 417, 420, 421, 423, 423, 350, 364, 365.0, 384, 338, 372, 344.0, 549, 290, 328, 308.5, 517, 367, 392, 391.0, 423, 338, 368, 353.5, 549, 290, 350, 340.0, 549, 290, 360, 367.5, 517]",0
"[396, 397, 397, 397, 397, 396, 396, 400, 400, 400, 399, 399, 399, 399, 399, 399, 401, 401, 404, 404, 404, 408, 408, 410, 412, 416, 419, 419, 417, 414, 412, 412, 412, 412, 411, 410, 410, 409, 409, 408, 408, 405, 406, 406, 406, 406, 402, 397, 396, 395, 396, 396, 400, 400, 399, 399, 399, 399, 399, 398, 397, 397, 397, 400, 401, 401, 401, 399, 397, 397, 400, 413, 437, 465, 494, 524, 551, 569, 571, 556, 527, 493, 466, 445, 434, 428, 420, 412, 413, 414, 411, 405, 400, 400, 400, 398, 398, 399, 399, 399, 399, 399, 398, 397, 395, 394, 394, 397, 398, 398, 398, 394, 394, 393, 394, 395, 395, 395, 393, 393, 393, 393, 393, 393, 393, 393, 393, 393, 395, 395, 393, 393, 394, 394, 394, 394, 393, 394, 394, 394, 392, 392, 393, 396, 397, 397, 397, 396, 395, 397, 397, 397, 397, 398, 398, 399, 401, 403, 403, 401, 396, 405, 404.0, 419, 395, 424, 400.0, 571, 393, 409, 398.5, 527, 392, 395, 394.0, 403, 395, 414, 401.0, 571, 393, 416, 399.0, 571, 392, 402, 397.0, 527]",0
"[394, 394, 397, 396, 396, 395, 396, 396, 396, 395, 396, 397, 401, 400, 400, 396, 395, 395, 397, 400, 404, 407, 409, 409, 408, 407, 405, 402, 402, 399, 400, 402, 402, 403, 401, 397, 394, 393, 393, 395, 395, 393, 390, 388, 387, 386, 386, 386, 386, 386, 386, 386, 386, 382, 381, 379, 381, 384, 387, 387, 386, 382, 382, 383, 383, 381, 378, 377, 376, 376, 382, 397, 422, 449, 483, 516, 540, 549, 548, 535, 509, 477, 446, 424, 414, 408, 396, 390, 389, 389, 386, 383, 380, 376, 373, 373, 372, 374, 374, 374, 373, 371, 369, 368, 368, 369, 370, 369, 369, 369, 369, 366, 366, 368, 367, 365, 365, 361, 361, 361, 363, 362, 360, 359, 359, 361, 361, 359, 359, 356, 355, 358, 358, 358, 357, 357, 357, 357, 357, 357, 357, 357, 354, 354, 354, 354, 356, 357, 355, 354, 354, 356, 356, 357, 358, 360, 361, 361, 361, 362, 393, 399, 397.0, 409, 376, 408, 386.0, 549, 361, 383, 372.5, 509, 354, 357, 357.0, 363, 376, 403, 395.0, 549, 361, 396, 382.5, 549, 354, 370, 361.5, 509]",0
"[311, 309, 305, 300, 295, 291, 288, 285, 282, 279, 276, 276, 273, 270, 266, 263, 261, 258, 258, 258, 254, 254, 254, 254, 254, 254, 253, 253, 249, 249, 249, 249, 248, 250, 252, 253, 252, 253, 253, 253, 251, 249, 248, 249, 252, 254, 254, 257, 259, 257, 258, 258, 256, 254, 254, 254, 254, 255, 257, 259, 263, 272, 284, 300, 319, 339, 358, 377, 401, 426, 453, 481, 509, 536, 562, 584, 602, 617, 627, 632, 632, 634, 632, 629, 625, 618, 608, 598, 591, 588, 589, 590, 590, 590, 585, 575, 562, 546, 526, 502, 473, 439, 395, 345, 297, 257, 235, 229, 230, 234, 236, 233, 229, 224, 215, 208, 202, 199, 197, 197, 197, 194, 196, 196, 193, 190, 188, 186, 186, 182, 179, 178, 178, 178, 178, 177, 175, 173, 170, 167, 165, 164, 160, 160, 160, 159, 159, 157, 154, 153, 150, 147, 147, 144, 141, 139, 139, 140, 140, 139, 248, 266, 256.0, 311, 248, 350, 261.0, 632, 197, 427, 487.5, 634, 139, 166, 166.0, 197, 248, 308, 258.0, 632, 197, 388, 309.5, 634, 139, 297, 197.0, 634]",1
